Timestamp,Sample,REG_6D,TIA1-3_RAW,TIA1-3_VALUE,TIA1-5_RAW,TIA1-5_VALUE,TIA1-8_RAW,TIA1-8_VALUE,TIA1-10_RAW,TIA1-10_VALUE
0.000000,0,0x00001F,951094,0.544220,1241949,0.710649,950163,0.543688,468131,0.267867
390.625000,1,0x00001F,950814,0.544060,1242078,0.710723,950303,0.543768,468386,0.268013
781.250000,2,0x00001F,950719,0.544006,1242031,0.710696,949890,0.543531,467934,0.267754
1171.875000,3,0x00001F,950957,0.544142,1242104,0.710738,949666,0.543403,468302,0.267965
1562.500000,4,0x00001F,950893,0.544105,1242258,0.710826,949813,0.543487,468065,0.267829
1953.125000,5,0x00001F,950731,0.544013,1242261,0.710827,949971,0.543578,468103,0.267851
2343.750000,6,0x00001F,951024,0.544180,1242188,0.710786,949845,0.543506,468132,0.267867
2734.375000,7,0x00001F,950663,0.543974,1242099,0.710735,950097,0.543650,468280,0.267952
3125.000000,8,0x00001F,951002,0.544168,1242144,0.710761,949730,0.543440,468184,0.267897
3515.625000,9,0x00001F,950626,0.543953,1242044,0.710703,950060,0.543629,468348,0.267991
3906.250000,10,0x00001F,950875,0.544095,1242313,0.710857,949921,0.543549,468144,0.267874
4296.875000,11,0x00001F,950856,0.544084,1242146,0.710762,950122,0.543664,468156,0.267881
4687.500000,12,0x00001F,950674,0.543980,1241893,0.710617,949804,0.543482,468069,0.267831
5078.125000,13,0x00001F,950968,0.544148,1242185,0.710784,949836,0.543501,468139,0.267871
5468.750000,14,0x00001F,950754,0.544026,1241854,0.710595,950007,0.543598,468270,0.267946
5859.375000,15,0x00001F,950931,0.544127,1242151,0.710765,949978,0.543582,468233,0.267925
6250.000000,16,0x00001F,950812,0.544059,1242060,0.710712,949684,0.543414,467841,0.267701
6640.625000,17,0x00001F,950982,0.544156,1241921,0.710633,950046,0.543621,468148,0.267876
7031.250000,18,0x00001F,951009,0.544172,1242062,0.710714,950018,0.543605,468251,0.267935
7421.875000,19,0x00001F,950776,0.544038,1242291,0.710845,949922,0.543550,468148,0.267876
7812.500000,20,0x00001F,950995,0.544164,1241957,0.710654,949964,0.543574,468427,0.268036
8203.125000,21,0x00001F,950725,0.544009,1242032,0.710696,949975,0.543580,468317,0.267973
8593.750000,22,0x00001F,950852,0.544082,1242174,0.710778,950178,0.543696,467897,0.267733
8984.375000,23,0x00001F,951002,0.544168,1242217,0.710802,950109,0.543657,468447,0.268048
9375.000000,24,0x00001F,951118,0.544234,1242129,0.710752,950032,0.543613,468320,0.267975
9765.625000,25,0x00001F,951037,0.544188,1242108,0.710740,950020,0.543606,468212,0.267913
10156.250000,26,0x00001F,950913,0.544117,1241959,0.710655,950143,0.543676,468247,0.267933
10546.875000,27,0x00001F,951185,0.544272,1242148,0.710763,949912,0.543544,468296,0.267961
10937.500000,28,0x00001F,951017,0.544176,1241750,0.710535,950084,0.543642,468174,0.267891
11328.125000,29,0x00001F,951149,0.544252,1242385,0.710898,949816,0.543489,468261,0.267941
11718.750000,30,0x00001F,950746,0.544021,1242052,0.710708,949873,0.543522,468308,0.267968
12109.375000,31,0x00001F,951049,0.544195,1241939,0.710643,949749,0.543451,468412,0.268028
12500.000000,32,0x00001F,950993,0.544163,1241870,0.710604,949834,0.543499,468202,0.267907
12890.625000,33,0x00001F,950995,0.544164,1242211,0.710799,949879,0.543525,468185,0.267898
13281.250000,34,0x00001F,950928,0.544125,1242115,0.710744,949994,0.543591,468167,0.267887
13671.875000,35,0x00001F,950769,0.544034,1242204,0.710795,950308,0.543771,468042,0.267816
14062.500000,36,0x00001F,950784,0.544043,1242095,0.710732,950016,0.543604,468386,0.268013
14453.125000,37,0x00001F,950894,0.544106,1241983,0.710668,949895,0.543534,468155,0.267880
14843.750000,38,0x00001F,951018,0.544177,1242133,0.710754,950122,0.543664,467935,0.267755
15234.375000,39,0x00001F,950884,0.544100,1241938,0.710643,950120,0.543663,468116,0.267858
15625.000000,40,0x00001F,951020,0.544178,1242109,0.710741,949998,0.543593,468051,0.267821
16015.625000,41,0x00001F,950732,0.544013,1242124,0.710749,949878,0.543525,468208,0.267911
16406.250000,42,0x00001F,951194,0.544278,1242091,0.710730,950231,0.543727,468284,0.267954
16796.875000,43,0x00001F,950837,0.544073,1242238,0.710814,949754,0.543454,468104,0.267851
17187.500000,44,0x00001F,951070,0.544207,1241804,0.710566,950045,0.543620,468062,0.267827
17578.125000,45,0x00001F,950964,0.544146,1242094,0.710732,950085,0.543643,468137,0.267870
17968.750000,46,0x00001F,951046,0.544193,1242272,0.710834,950283,0.543756,468278,0.267951
18359.375000,47,0x00001F,951007,0.544171,1242336,0.710870,950107,0.543656,467836,0.267698
18750.000000,48,0x00001F,951080,0.544212,1241766,0.710544,949985,0.543586,468170,0.267889
19140.625000,49,0x00001F,950632,0.543956,1242034,0.710698,949809,0.543485,468221,0.267918
19531.250000,50,0x00001F,950645,0.543963,1241972,0.710662,950041,0.543618,468131,0.267867
19921.875000,51,0x00001F,951066,0.544204,1242000,0.710678,950050,0.543623,468070,0.267832
20312.500000,52,0x00001F,950979,0.544155,1242211,0.710799,949599,0.543365,468453,0.268051
20703.125000,53,0x00001F,950968,0.544148,1242005,0.710681,950285,0.543757,468267,0.267945
21093.750000,54,0x00001F,951062,0.544202,1242205,0.710795,950068,0.543633,468226,0.267921
21484.375000,55,0x00001F,951033,0.544185,1242315,0.710858,950020,0.543606,468274,0.267949
21875.000000,56,0x00001F,950807,0.544056,1242131,0.710753,949985,0.543586,468047,0.267819
22265.625000,57,0x00001F,950959,0.544143,1242179,0.710781,949801,0.543481,468464,0.268057
22656.250000,58,0x00001F,950974,0.544152,1242044,0.710703,950038,0.543616,468029,0.267808
23046.875000,59,0x00001F,950642,0.543962,1242114,0.710743,950264,0.543745,468368,0.268002
23437.500000,60,0x00001F,951069,0.544206,1241901,0.710621,950060,0.543629,468379,0.268009
23828.125000,61,0x00001F,951016,0.544176,1242164,0.710772,949994,0.543591,468179,0.267894
24218.750000,62,0x00001F,951008,0.544171,1242116,0.710745,949860,0.543514,468490,0.268072
24609.375000,63,0x00001F,950888,0.544102,1241860,0.710598,950083,0.543642,467867,0.267716
25000.000000,64,0x00001F,950732,0.544013,1242165,0.710773,949704,0.543425,468292,0.267959
25390.625000,65,0x00001F,950642,0.543962,1242020,0.710690,950098,0.543650,468110,0.267855
25781.250000,66,0x00001F,950802,0.544053,1242169,0.710775,949844,0.543505,468285,0.267955
26171.875000,67,0x00001F,950633,0.543957,1241970,0.710661,949604,0.543368,468252,0.267936
26562.500000,68,0x00001F,951090,0.544218,1242095,0.710732,949960,0.543571,468152,0.267879
26953.125000,69,0x00001F,951016,0.544176,1242269,0.710832,949843,0.543505,468182,0.267896
27343.750000,70,0x00001F,950830,0.544069,1242272,0.710834,949890,0.543531,468326,0.267978
27734.375000,71,0x00001F,951061,0.544201,1242215,0.710801,949982,0.543584,468560,0.268112
28125.000000,72,0x00001F,950784,0.544043,1241950,0.710649,949769,0.543462,467862,0.267713
28515.625000,73,0x00001F,950987,0.544159,1242036,0.710699,949764,0.543459,468117,0.267859
28906.250000,74,0x00001F,950864,0.544089,1241934,0.710640,949771,0.543463,467976,0.267778
29296.875000,75,0x00001F,951235,0.544301,1242087,0.710728,949860,0.543514,467924,0.267748
29687.500000,76,0x00001F,950925,0.544124,1241884,0.710612,949833,0.543499,468331,0.267981
30078.125000,77,0x00001F,950583,0.543928,1242029,0.710695,949764,0.543459,467904,0.267737
30468.750000,78,0x00001F,950695,0.543992,1242035,0.710698,949809,0.543485,467767,0.267658
30859.375000,79,0x00001F,950684,0.543986,1242235,0.710813,950104,0.543654,468302,0.267965
31250.000000,80,0x00001F,951153,0.544254,1241975,0.710664,949984,0.543585,468314,0.267971
31640.625000,81,0x00001F,950944,0.544135,1242206,0.710796,949734,0.543442,468132,0.267867
32031.250000,82,0x00001F,951014,0.544175,1242186,0.710785,949842,0.543504,468107,0.267853
32421.875000,83,0x00001F,951040,0.544189,1242163,0.710771,949747,0.543450,468079,0.267837
32812.500000,84,0x00001F,951031,0.544184,1242005,0.710681,949732,0.543441,468382,0.268010
33203.125000,85,0x00001F,951040,0.544189,1241937,0.710642,950104,0.543654,468315,0.267972
33593.750000,86,0x00001F,950889,0.544103,1241985,0.710670,949869,0.543519,468013,0.267799
33984.375000,87,0x00001F,950826,0.544067,1241976,0.710664,949713,0.543430,468050,0.267820
34375.000000,88,0x00001F,950696,0.543993,1241781,0.710553,949945,0.543563,468098,0.267848
34765.625000,89,0x00001F,950694,0.543992,1241979,0.710666,949865,0.543517,468174,0.267891
35156.250000,90,0x00001F,950913,0.544117,1241980,0.710667,950027,0.543610,468208,0.267911
35546.875000,91,0x00001F,951037,0.544188,1241853,0.710594,950011,0.543601,468231,0.267924
35937.500000,92,0x00001F,950876,0.544096,1242117,0.710745,949776,0.543466,467975,0.267777
36328.125000,93,0x00001F,950892,0.544105,1242073,0.710720,949905,0.543540,468095,0.267846
36718.750000,94,0x00001F,950899,0.544109,1242212,0.710799,950001,0.543595,468095,0.267846
37109.375000,95,0x00001F,950751,0.544024,1242237,0.710814,949692,0.543418,468476,0.268064
37500.000000,96,0x00001F,950560,0.543915,1241983,0.710668,950102,0.543653,468553,0.268108
37890.625000,97,0x00001F,950805,0.544055,1241975,0.710664,949555,0.543340,468115,0.267858
38281.250000,98,0x00001F,950672,0.543979,1242010,0.710684,950198,0.543708,468155,0.267880
38671.875000,99,0x00001F,951015,0.544175,1242295,0.710847,950013,0.543602,468332,0.267982
39062.500000,100,0x00001F,950798,0.544051,1242455,0.710938,949702,0.543424,468130,0.267866
39453.125000,101,0x00001F,951083,0.544214,1242009,0.710683,950028,0.543610,468231,0.267924
39843.750000,102,0x00001F,951043,0.544191,1241936,0.710642,949913,0.543545,468504,0.268080
40234.375000,103,0x00001F,950760,0.544029,1241945,0.710647,949820,0.543491,468150,0.267878
40625.000000,104,0x00001F,950874,0.544095,1241922,0.710634,949788,0.543473,468431,0.268038
41015.625000,105,0x00001F,950815,0.544061,1241877,0.710608,949887,0.543530,468112,0.267856
41406.250000,106,0x00001F,950730,0.544012,1241961,0.710656,949735,0.543443,468401,0.268021
41796.875000,107,0x00001F,950951,0.544139,1242226,0.710807,949944,0.543562,468580,0.268124
42187.500000,108,0x00001F,951076,0.544210,1242057,0.710711,949996,0.543592,468278,0.267951
42578.125000,109,0x00001F,950894,0.544106,1242070,0.710718,949784,0.543471,468194,0.267903
42968.750000,110,0x00001F,950783,0.544042,1242012,0.710685,950028,0.543610,468302,0.267965
43359.375000,111,0x00001F,951017,0.544176,1242109,0.710741,949984,0.543585,468196,0.267904
43750.000000,112,0x00001F,950745,0.544021,1242047,0.710705,950061,0.543629,468419,0.268032
44140.625000,113,0x00001F,950794,0.544049,1242299,0.710849,949690,0.543417,468478,0.268065
44531.250000,114,0x00001F,950876,0.544096,1241880,0.710609,949825,0.543494,468244,0.267931
44921.875000,115,0x00001F,950998,0.544165,1242288,0.710843,949871,0.543521,468099,0.267848
45312.500000,116,0x00001F,950691,0.543990,1241833,0.710583,949739,0.543445,468231,0.267924
45703.125000,117,0x00001F,950713,0.544002,1242188,0.710786,950014,0.543602,468170,0.267889
46093.750000,118,0x00001F,951057,0.544199,1242182,0.710782,950024,0.543608,468274,0.267949
46484.375000,119,0x00001F,950801,0.544053,1241980,0.710667,949801,0.543481,468105,0.267852
46875.000000,120,0x00001F,951014,0.544175,1241835,0.710584,949791,0.543475,468103,0.267851
47265.625000,121,0x00001F,950751,0.544024,1242212,0.710799,949607,0.543370,468247,0.267933
47656.250000,122,0x00001F,951073,0.544208,1241917,0.710631,950022,0.543607,468497,0.268076
48046.875000,123,0x00001F,951065,0.544204,1242091,0.710730,949617,0.543375,468396,0.268018
48437.500000,124,0x00001F,951098,0.544223,1242169,0.710775,949840,0.543503,468043,0.267816
48828.125000,125,0x00001F,951137,0.544245,1242135,0.710755,949977,0.543581,468470,0.268061
49218.750000,126,0x00001F,951184,0.544272,1242239,0.710815,950001,0.543595,467983,0.267782
49609.375000,127,0x00001F,950708,0.543999,1241950,0.710649,949910,0.543543,468259,0.267940
50000.000000,128,0x00001F,951035,0.544187,1241977,0.710665,949899,0.543537,467969,0.267774
50390.625000,129,0x00001F,950748,0.544022,1242138,0.710757,950194,0.543705,468269,0.267946
50781.250000,130,0x00001F,950797,0.544050,1241937,0.710642,949934,0.543557,468199,0.267906
51171.875000,131,0x00001F,950873,0.544094,1241941,0.710644,950033,0.543613,468324,0.267977
51562.500000,132,0x00001F,950748,0.544022,1242297,0.710848,949797,0.543478,468275,0.267949
51953.125000,133,0x00001F,950939,0.544132,1242300,0.710850,949866,0.543518,468350,0.267992
52343.750000,134,0x00001F,950855,0.544084,1241996,0.710676,950022,0.543607,468368,0.268002
52734.375000,135,0x00001F,951038,0.544188,1242341,0.710873,949613,0.543373,468275,0.267949
53125.000000,136,0x00001F,950998,0.544165,1242088,0.710728,949953,0.543567,468289,0.267957
53515.625000,137,0x00001F,950716,0.544004,1241862,0.710599,949964,0.543574,468147,0.267876
53906.250000,138,0x00001F,951142,0.544248,1242049,0.710706,949762,0.543458,468133,0.267868
54296.875000,139,0x00001F,950915,0.544118,1242045,0.710704,949972,0.543578,468135,0.267869
54687.500000,140,0x00001F,950786,0.544044,1242185,0.710784,949708,0.543427,468168,0.267888
55078.125000,141,0x00001F,951103,0.544226,1242009,0.710683,949964,0.543574,468267,0.267945
55468.750000,142,0x00001F,951085,0.544215,1242271,0.710833,950031,0.543612,468051,0.267821
55859.375000,143,0x00001F,950614,0.543946,1241958,0.710654,950046,0.543621,468139,0.267871
56250.000000,144,0x00001F,950945,0.544135,1242053,0.710708,949762,0.543458,468195,0.267903
56640.625000,145,0x00001F,950769,0.544034,1242194,0.710789,949885,0.543529,468200,0.267906
57031.250000,146,0x00001F,950810,0.544058,1241856,0.710596,949881,0.543526,468434,0.268040
57421.875000,147,0x00001F,950502,0.543882,1241773,0.710548,949984,0.543585,468199,0.267906
57812.500000,148,0x00001F,950758,0.544028,1242203,0.710794,949912,0.543544,468451,0.268050
58203.125000,149,0x00001F,950760,0.544029,1242074,0.710720,949925,0.543551,468033,0.267811
58593.750000,150,0x00001F,951143,0.544248,1241988,0.710671,950152,0.543681,468394,0.268017
58984.375000,151,0x00001F,951055,0.544198,1242000,0.710678,950074,0.543637,468243,0.267931
59375.000000,152,0x00001F,951029,0.544183,1242062,0.710714,949970,0.543577,468408,0.268025
59765.625000,153,0x00001F,950953,0.544140,1242161,0.710770,949877,0.543524,468227,0.267922
60156.250000,154,0x00001F,950756,0.544027,1242035,0.710698,949947,0.543564,468108,0.267854
60546.875000,155,0x00001F,950938,0.544131,1241857,0.710596,949857,0.543513,468317,0.267973
60937.500000,156,0x00001F,951094,0.544220,1241917,0.710631,950213,0.543716,468163,0.267885
61328.125000,157,0x00001F,950702,0.543996,1242272,0.710834,949917,0.543547,467951,0.267764
61718.750000,158,0x00001F,950821,0.544064,1242107,0.710739,949985,0.543586,468038,0.267814
62109.375000,159,0x00001F,950906,0.544113,1241820,0.710575,950059,0.543628,468150,0.267878
62500.000000,160,0x00001F,951009,0.544172,1241996,0.710676,950053,0.543625,468184,0.267897
62890.625000,161,0x00001F,950784,0.544043,1242340,0.710873,950003,0.543596,468210,0.267912
63281.250000,162,0x00001F,950929,0.544126,1242129,0.710752,949816,0.543489,468411,0.268027
63671.875000,163,0x00001F,950765,0.544032,1242126,0.710750,949719,0.543434,468222,0.267919
64062.500000,164,0x00001F,950869,0.544092,1242093,0.710731,949834,0.543499,468120,0.267860
64453.125000,165,0x00001F,950916,0.544119,1242115,0.710744,950010,0.543600,468340,0.267986
64843.750000,166,0x00001F,950919,0.544120,1241843,0.710588,949709,0.543428,468175,0.267892
65234.375000,167,0x00001F,950951,0.544139,1241993,0.710674,949819,0.543491,468270,0.267946
65625.000000,168,0x00001F,950952,0.544139,1242077,0.710722,949844,0.543505,468243,0.267931
66015.625000,169,0x00001F,950870,0.544092,1242361,0.710885,949833,0.543499,468061,0.267827
66406.250000,170,0x00001F,950700,0.543995,1242112,0.710742,949763,0.543459,468427,0.268036
66796.875000,171,0x00001F,950832,0.544070,1241871,0.710604,949856,0.543512,468421,0.268033
67187.500000,172,0x00001F,951167,0.544262,1241966,0.710659,950343,0.543791,468146,0.267875
67578.125000,173,0x00001F,950813,0.544060,1242134,0.710755,949844,0.543505,468357,0.267996
67968.750000,174,0x00001F,951105,0.544227,1242072,0.710719,950006,0.543598,468325,0.267978
68359.375000,175,0x00001F,951083,0.544214,1242176,0.710779,950012,0.543601,468182,0.267896
68750.000000,176,0x00001F,951181,0.544270,1242002,0.710679,950010,0.543600,468293,0.267959
69140.625000,177,0x00001F,950676,0.543981,1242039,0.710700,949748,0.543450,468092,0.267844
69531.250000,178,0x00001F,950911,0.544116,1242075,0.710721,950176,0.543695,468284,0.267954
69921.875000,179,0x00001F,950841,0.544076,1241917,0.710631,949764,0.543459,468273,0.267948
70312.500000,180,0x00001F,950926,0.544124,1242117,0.710745,949787,0.543473,468261,0.267941
70703.125000,181,0x00001F,950779,0.544040,1242332,0.710868,949923,0.543550,468091,0.267844
71093.750000,182,0x00001F,950800,0.544052,1241900,0.710621,949869,0.543519,467989,0.267785
71484.375000,183,0x00001F,950989,0.544160,1241821,0.710576,949984,0.543585,468275,0.267949
71875.000000,184,0x00001F,951043,0.544191,1242238,0.710814,949859,0.543514,468477,0.268065
72265.625000,185,0x00001F,950834,0.544072,1241988,0.710671,949688,0.543416,468189,0.267900
72656.250000,186,0x00001F,950876,0.544096,1241898,0.710620,949710,0.543428,468199,0.267906
73046.875000,187,0x00001F,950828,0.544068,1241809,0.710569,949925,0.543551,468185,0.267898
73437.500000,188,0x00001F,950885,0.544101,1241815,0.710572,949859,0.543514,468419,0.268032
73828.125000,189,0x00001F,951073,0.544208,1241989,0.710672,950067,0.543633,467984,0.267783
74218.750000,190,0x00001F,950671,0.543978,1242008,0.710683,949819,0.543491,468013,0.267799
74609.375000,191,0x00001F,950970,0.544149,1242361,0.710885,949918,0.543547,467981,0.267781
75000.000000,192,0x00001F,950950,0.544138,1242265,0.710830,950056,0.543626,468283,0.267954
75390.625000,193,0x00001F,950808,0.544057,1241969,0.710660,950111,0.543658,468369,0.268003
75781.250000,194,0x00001F,950737,0.544016,1241889,0.710615,950161,0.543687,468305,0.267966
76171.875000,195,0x00001F,950754,0.544026,1241687,0.710499,949826,0.543495,468133,0.267868
76562.500000,196,0x00001F,950501,0.543881,1242331,0.710868,949889,0.543531,468115,0.267858
76953.125000,197,0x00001F,950865,0.544089,1242041,0.710702,949918,0.543547,468213,0.267914
77343.750000,198,0x00001F,950941,0.544133,1242158,0.710769,949811,0.543486,468425,0.268035
77734.375000,199,0x00001F,950736,0.544016,1242210,0.710798,949909,0.543542,468199,0.267906
78125.000000,200,0x00001F,950883,0.544100,1242254,0.710823,949920,0.543549,468135,0.267869
78515.625000,201,0x00001F,950907,0.544113,1241872,0.710605,949797,0.543478,468282,0.267953
78906.250000,202,0x00001F,950958,0.544143,1242054,0.710709,949924,0.543551,468503,0.268080
79296.875000,203,0x00001F,950742,0.544019,1242097,0.710734,950086,0.543644,468207,0.267910
79687.500000,204,0x00001F,950813,0.544060,1241676,0.710493,950214,0.543717,468274,0.267949
80078.125000,205,0x00001F,951205,0.544284,1242148,0.710763,950150,0.543680,468273,0.267948
80468.750000,206,0x00001F,950862,0.544088,1242140,0.710758,950206,0.543712,468173,0.267891
80859.375000,207,0x00001F,951044,0.544192,1242002,0.710679,949870,0.543520,468091,0.267844
81250.000000,208,0x00001F,950890,0.544104,1242040,0.710701,949941,0.543561,468212,0.267913
81640.625000,209,0x00001F,950585,0.543929,1242268,0.710831,949758,0.543456,468392,0.268016
82031.250000,210,0x00001F,950698,0.543994,1242008,0.710683,949866,0.543518,468057,0.267824
82421.875000,211,0x00001F,950870,0.544092,1242142,0.710759,949957,0.543570,467693,0.267616
82812.500000,212,0x00001F,950654,0.543969,1241943,0.710645,949831,0.543498,468085,0.267840
83203.125000,213,0x00001F,950961,0.544144,1242073,0.710720,949781,0.543469,468072,0.267833
83593.750000,214,0x00001F,951101,0.544224,1241719,0.710517,949727,0.543438,468299,0.267963
83984.375000,215,0x00001F,950768,0.544034,1242034,0.710698,949892,0.543533,468374,0.268006
84375.000000,216,0x00001F,950986,0.544159,1242075,0.710721,949949,0.543565,468123,0.267862
84765.625000,217,0x00001F,951087,0.544216,1242349,0.710878,949917,0.543547,468195,0.267903
85156.250000,218,0x00001F,950841,0.544076,1242066,0.710716,949644,0.543391,468029,0.267808
85546.875000,219,0x00001F,950736,0.544016,1241962,0.710656,949750,0.543451,468269,0.267946
85937.500000,220,0x00001F,950940,0.544132,1242113,0.710743,949914,0.543545,468499,0.268077
86328.125000,221,0x00001F,950834,0.544072,1242213,0.710800,949821,0.543492,468119,0.267860
86718.750000,222,0x00001F,950752,0.544025,1242177,0.710779,949783,0.543470,468127,0.267864
87109.375000,223,0x00001F,950766,0.544033,1241887,0.710613,950116,0.543661,468106,0.267852
87500.000000,224,0x00001F,950842,0.544076,1242050,0.710707,949688,0.543416,468048,0.267819
87890.625000,225,0x00001F,950630,0.543955,1242138,0.710757,950026,0.543609,468238,0.267928
88281.250000,226,0x00001F,950879,0.544097,1241891,0.710616,949810,0.543486,467997,0.267790
88671.875000,227,0x00001F,950938,0.544131,1241914,0.710629,950011,0.543601,468122,0.267862
89062.500000,228,0x00001F,950836,0.544073,1241832,0.710582,949803,0.543482,468265,0.267943
89453.125000,229,0x00001F,950747,0.544022,1241900,0.710621,949941,0.543561,468276,0.267950
89843.750000,230,0x00001F,950691,0.543990,1241907,0.710625,950094,0.543648,468033,0.267811
90234.375000,231,0x00001F,950803,0.544054,1242012,0.710685,949609,0.543371,468096,0.267847
90625.000000,232,0x00001F,951287,0.544331,1241892,0.710616,950070,0.543634,468147,0.267876
91015.625000,233,0x00001F,950760,0.544029,1241785,0.710555,950021,0.543606,468406,0.268024
91406.250000,234,0x00001F,950804,0.544054,1241994,0.710675,949848,0.543507,468062,0.267827
91796.875000,235,0x00001F,951030,0.544184,1241895,0.710618,949862,0.543515,468158,0.267882
92187.500000,236,0x00001F,950995,0.544164,1241909,0.710626,949778,0.543467,467941,0.267758
92578.125000,237,0x00001F,950971,0.544150,1242225,0.710807,949897,0.543535,468436,0.268041
92968.750000,238,0x00001F,951012,0.544173,1242079,0.710723,950078,0.543639,468777,0.268236
93359.375000,239,0x00001F,950857,0.544085,1241930,0.710638,949889,0.543531,468165,0.267886
93750.000000,240,0x00001F,950866,0.544090,1242154,0.710766,949894,0.543534,468150,0.267878
94140.625000,241,0x00001F,950637,0.543959,1242031,0.710696,949477,0.543295,468048,0.267819
94531.250000,242,0x00001F,950712,0.544002,1242283,0.710840,950019,0.543605,468613,0.268143
94921.875000,243,0x00001F,950726,0.544010,1242012,0.710685,950047,0.543621,468119,0.267860
95312.500000,244,0x00001F,950773,0.544037,1241970,0.710661,949877,0.543524,468425,0.268035
95703.125000,245,0x00001F,950803,0.544054,1241934,0.710640,949848,0.543507,468117,0.267859
96093.750000,246,0x00001F,950823,0.544065,1241980,0.710667,950063,0.543630,468310,0.267969
96484.375000,247,0x00001F,950809,0.544057,1241975,0.710664,949771,0.543463,468082,0.267839
96875.000000,248,0x00001F,950745,0.544021,1241916,0.710630,950005,0.543597,468241,0.267930
97265.625000,249,0x00001F,951020,0.544178,1241895,0.710618,949965,0.543574,468239,0.267929
97656.250000,250,0x00001F,950886,0.544101,1241812,0.710571,949930,0.543554,468319,0.267974
98046.875000,251,0x00001F,950586,0.543930,1241796,0.710561,949674,0.543408,468188,0.267899
98437.500000,252,0x00001F,950832,0.544070,1242063,0.710714,949781,0.543469,468189,0.267900
98828.125000,253,0x00001F,950791,0.544047,1241830,0.710581,950016,0.543604,468236,0.267927
99218.750000,254,0x00001F,951160,0.544258,1242007,0.710682,949854,0.543511,468135,0.267869
99609.375000,255,0x00001F,951080,0.544212,1242081,0.710724,949696,0.543420,468255,0.267938
100000.000000,256,0x00001F,950938,0.544131,1242190,0.710787,950046,0.543621,468408,0.268025
100390.625000,257,0x00001F,950840,0.544075,1241870,0.710604,949761,0.543458,468307,0.267967
100781.250000,258,0x00001F,951121,0.544236,1242212,0.710799,950291,0.543761,468371,0.268004
101171.875000,259,0x00001F,951102,0.544225,1241954,0.710652,949843,0.543505,468233,0.267925
101562.500000,260,0x00001F,951026,0.544181,1241951,0.710650,949840,0.543503,468299,0.267963
101953.125000,261,0x00001F,951097,0.544222,1242200,0.710793,949841,0.543503,468111,0.267855
102343.750000,262,0x00001F,951174,0.544266,1242063,0.710714,950016,0.543604,468313,0.267971
102734.375000,263,0x00001F,950909,0.544115,1242181,0.710782,950169,0.543691,468245,0.267932
103125.000000,264,0x00001F,950988,0.544160,1242050,0.710707,950292,0.543761,468346,0.267990
103515.625000,265,0x00001F,950687,0.543988,1241829,0.710580,949900,0.543537,468139,0.267871
103906.250000,266,0x00001F,950994,0.544163,1242076,0.710722,949926,0.543552,468119,0.267860
104296.875000,267,0x00001F,950860,0.544086,1242225,0.710807,950240,0.543732,468478,0.268065
104687.500000,268,0x00001F,950854,0.544083,1242095,0.710732,950034,0.543614,468387,0.268013
105078.125000,269,0x00001F,951003,0.544168,1241550,0.710421,949824,0.543494,468175,0.267892
105468.750000,270,0x00001F,950764,0.544032,1242020,0.710690,949563,0.543344,468294,0.267960
105859.375000,271,0x00001F,950982,0.544156,1242098,0.710734,949980,0.543583,468189,0.267900
106250.000000,272,0x00001F,950851,0.544081,1242060,0.710712,950141,0.543675,468044,0.267817
106640.625000,273,0x00001F,950829,0.544069,1242188,0.710786,949898,0.543536,468006,0.267795
107031.250000,274,0x00001F,950880,0.544098,1242017,0.710688,949952,0.543567,467957,0.267767
107421.875000,275,0x00001F,950949,0.544137,1241827,0.710579,949804,0.543482,468306,0.267967
107812.500000,276,0x00001F,950760,0.544029,1242030,0.710695,949931,0.543555,468297,0.267962
108203.125000,277,0x00001F,951056,0.544199,1242177,0.710779,949947,0.543564,468152,0.267879
108593.750000,278,0x00001F,950759,0.544029,1242117,0.710745,950151,0.543681,468172,0.267890
108984.375000,279,0x00001F,950846,0.544078,1242106,0.710739,949960,0.543571,468500,0.268078
109375.000000,280,0x00001F,950932,0.544128,1242012,0.710685,949783,0.543470,468404,0.268023
109765.625000,281,0x00001F,950761,0.544030,1241894,0.710617,949868,0.543519,468511,0.268084
110156.250000,282,0x00001F,950791,0.544047,1242159,0.710769,949938,0.543559,468089,0.267843
110546.875000,283,0x00001F,950852,0.544082,1242092,0.710731,949949,0.543565,468423,0.268034
110937.500000,284,0x00001F,951057,0.544199,1242196,0.710790,949950,0.543566,468158,0.267882
111328.125000,285,0x00001F,950908,0.544114,1241840,0.710587,949796,0.543478,468215,0.267915
111718.750000,286,0x00001F,951027,0.544182,1241979,0.710666,950111,0.543658,468397,0.268019
112109.375000,287,0x00001F,950741,0.544018,1242082,0.710725,949986,0.543586,468186,0.267898
112500.000000,288,0x00001F,950815,0.544061,1241676,0.710493,949867,0.543518,468065,0.267829
112890.625000,289,0x00001F,950896,0.544107,1242133,0.710754,949871,0.543521,468214,0.267914
113281.250000,290,0x00001F,951080,0.544212,1242020,0.710690,949809,0.543485,468532,0.268096
113671.875000,291,0x00001F,950941,0.544133,1242035,0.710698,949832,0.543498,468019,0.267803
114062.500000,292,0x00001F,950882,0.544099,1241861,0.710599,949791,0.543475,468416,0.268030
114453.125000,293,0x00001F,950828,0.544068,1242179,0.710781,950183,0.543699,468423,0.268034
114843.750000,294,0x00001F,951098,0.544223,1242201,0.710793,950030,0.543612,468286,0.267955
115234.375000,295,0x00001F,950593,0.543934,1241907,0.710625,950025,0.543609,468215,0.267915
115625.000000,296,0x00001F,951104,0.544226,1242253,0.710823,950111,0.543658,468307,0.267967
116015.625000,297,0x00001F,950817,0.544062,1242047,0.710705,949922,0.543550,468557,0.268110
116406.250000,298,0x00001F,950955,0.544141,1241876,0.710607,949811,0.543486,468368,0.268002
116796.875000,299,0x00001F,951137,0.544245,1242140,0.710758,949894,0.543534,468075,0.267835
117187.500000,300,0x00001F,951007,0.544171,1241881,0.710610,949944,0.543562,468184,0.267897
117578.125000,301,0x00001F,950879,0.544097,1242028,0.710694,949797,0.543478,468006,0.267795
117968.750000,302,0x00001F,950890,0.544104,1242215,0.710801,950196,0.543707,468413,0.268028
118359.375000,303,0x00001F,950876,0.544096,1242175,0.710778,949963,0.543573,468276,0.267950
118750.000000,304,0x00001F,950929,0.544126,1242007,0.710682,950105,0.543654,468366,0.268001
119140.625000,305,0x00001F,950879,0.544097,1241949,0.710649,949885,0.543529,468357,0.267996
119531.250000,306,0x00001F,950818,0.544062,1242272,0.710834,949783,0.543470,468115,0.267858
119921.875000,307,0x00001F,951151,0.544253,1242011,0.710684,949805,0.543483,468242,0.267930
120312.500000,308,0x00001F,950785,0.544044,1242045,0.710704,949617,0.543375,467968,0.267773
120703.125000,309,0x00001F,950958,0.544143,1241952,0.710651,949836,0.543501,468128,0.267865
121093.750000,310,0x00001F,950899,0.544109,1241899,0.710620,949725,0.543437,467972,0.267776
121484.375000,311,0x00001F,950817,0.544062,1242308,0.710854,949917,0.543547,468324,0.267977
121875.000000,312,0x00001F,950850,0.544081,1241940,0.710644,950047,0.543621,468160,0.267883
122265.625000,313,0x00001F,950595,0.543935,1242196,0.710790,949744,0.543448,468182,0.267896
122656.250000,314,0x00001F,951030,0.544184,1242119,0.710746,949852,0.543510,467964,0.267771
123046.875000,315,0x00001F,950830,0.544069,1242298,0.710849,949867,0.543518,468240,0.267929
123437.500000,316,0x00001F,950875,0.544095,1242154,0.710766,949823,0.543493,468154,0.267880
123828.125000,317,0x00001F,950963,0.544145,1242189,0.710786,950056,0.543626,468214,0.267914
124218.750000,318,0x00001F,951090,0.544218,1242178,0.710780,949864,0.543517,468282,0.267953
124609.375000,319,0x00001F,950829,0.544069,1241999,0.710678,949846,0.543506,468042,0.267816
125000.000000,320,0x00001F,950847,0.544079,1242010,0.710684,949795,0.543477,468347,0.267990
125390.625000,321,0x00001F,950834,0.544072,1242145,0.710761,949849,0.543508,468149,0.267877
125781.250000,322,0x00001F,950982,0.544156,1242045,0.710704,949890,0.543531,468402,0.268022
126171.875000,323,0x00001F,950738,0.544017,1241783,0.710554,949854,0.543511,468103,0.267851
126562.500000,324,0x00001F,950869,0.544092,1242415,0.710916,949821,0.543492,468104,0.267851
126953.125000,325,0x00001F,950939,0.544132,1242129,0.710752,949715,0.543431,468058,0.267825
127343.750000,326,0x00001F,950698,0.543994,1242096,0.710733,950045,0.543620,468251,0.267935
127734.375000,327,0x00001F,951320,0.544350,1242233,0.710811,949910,0.543543,468178,0.267894
128125.000000,328,0x00001F,950704,0.543997,1242126,0.710750,950154,0.543683,467975,0.267777
128515.625000,329,0x00001F,951289,0.544332,1242275,0.710835,950015,0.543603,468354,0.267994
128906.250000,330,0x00001F,950692,0.543990,1242073,0.710720,950176,0.543695,468718,0.268203
129296.875000,331,0x00001F,950964,0.544146,1241971,0.710662,950028,0.543610,468362,0.267999
129687.500000,332,0x00001F,950497,0.543879,1241813,0.710571,949894,0.543534,468384,0.268011
130078.125000,333,0x00001F,950763,0.544031,1241970,0.710661,950068,0.543633,468256,0.267938
130468.750000,334,0x00001F,951316,0.544347,1242201,0.710793,949747,0.543450,468217,0.267916
130859.375000,335,0x00001F,950746,0.544021,1242060,0.710712,949932,0.543555,468412,0.268028
131250.000000,336,0x00001F,950851,0.544081,1242373,0.710892,949836,0.543501,468458,0.268054
131640.625000,337,0x00001F,950936,0.544130,1242040,0.710701,949967,0.543576,468220,0.267918
132031.250000,338,0x00001F,950682,0.543985,1241704,0.710509,949662,0.543401,467991,0.267787
132421.875000,339,0x00001F,951023,0.544180,1242179,0.710781,949695,0.543420,468164,0.267886
132812.500000,340,0x00001F,950931,0.544127,1241707,0.710510,949816,0.543489,468380,0.268009
133203.125000,341,0x00001F,951033,0.544185,1242168,0.710774,949466,0.543289,467933,0.267753
133593.750000,342,0x00001F,951081,0.544213,1241910,0.710627,949900,0.543537,468435,0.268041
133984.375000,343,0x00001F,950897,0.544108,1241898,0.710620,949839,0.543502,468064,0.267828
134375.000000,344,0x00001F,950940,0.544132,1242093,0.710731,950046,0.543621,468162,0.267884
134765.625000,345,0x00001F,950993,0.544163,1242097,0.710734,949812,0.543487,468103,0.267851
135156.250000,346,0x00001F,951207,0.544285,1242143,0.710760,950104,0.543654,468292,0.267959
135546.875000,347,0x00001F,951055,0.544198,1242010,0.710684,949731,0.543440,468191,0.267901
135937.500000,348,0x00001F,950930,0.544127,1242001,0.710679,950134,0.543671,468252,0.267936
136328.125000,349,0x00001F,950794,0.544049,1242085,0.710727,949973,0.543579,468113,0.267856
136718.750000,350,0x00001F,950771,0.544036,1242009,0.710683,950065,0.543632,468232,0.267925
137109.375000,351,0x00001F,950556,0.543913,1241988,0.710671,950125,0.543666,468202,0.267907
137500.000000,352,0x00001F,950867,0.544091,1242111,0.710742,949961,0.543572,468011,0.267798
137890.625000,353,0x00001F,950917,0.544119,1242126,0.710750,949883,0.543527,468390,0.268015
138281.250000,354,0x00001F,950888,0.544102,1242039,0.710700,949994,0.543591,468069,0.267831
138671.875000,355,0x00001F,950618,0.543948,1242027,0.710694,949729,0.543439,468221,0.267918
139062.500000,356,0x00001F,951005,0.544169,1242251,0.710822,950154,0.543683,468385,0.268012
139453.125000,357,0x00001F,950420,0.543835,1242075,0.710721,949950,0.543566,468150,0.267878
139843.750000,358,0x00001F,951230,0.544298,1241988,0.710671,950159,0.543685,468280,0.267952
140234.375000,359,0x00001F,950792,0.544048,1242077,0.710722,949671,0.543406,468204,0.267908
140625.000000,360,0x00001F,951230,0.544298,1242144,0.710761,950038,0.543616,468396,0.268018
141015.625000,361,0x00001F,950773,0.544037,1242018,0.710688,949894,0.543534,467890,0.267729
141406.250000,362,0x00001F,950968,0.544148,1241863,0.710600,949822,0.543493,468099,0.267848
141796.875000,363,0x00001F,950778,0.544040,1242166,0.710773,949773,0.543464,468095,0.267846
142187.500000,364,0x00001F,950813,0.544060,1242259,0.710826,949975,0.543580,468381,0.268010
142578.125000,365,0x00001F,950669,0.543977,1242040,0.710701,949927,0.543553,468157,0.267882
142968.750000,366,0x00001F,950994,0.544163,1242157,0.710768,949789,0.543474,468038,0.267814
143359.375000,367,0x00001F,950912,0.544116,1241978,0.710666,949874,0.543522,468299,0.267963
143750.000000,368,0x00001F,951104,0.544226,1241994,0.710675,949847,0.543507,468478,0.268065
144140.625000,369,0x00001F,950578,0.543925,1241909,0.710626,949940,0.543560,468156,0.267881
144531.250000,370,0x00001F,950931,0.544127,1242351,0.710879,949529,0.543325,468227,0.267922
144921.875000,371,0x00001F,950972,0.544151,1241958,0.710654,950217,0.543719,468116,0.267858
145312.500000,372,0x00001F,950833,0.544071,1241971,0.710662,950208,0.543713,468323,0.267977
145703.125000,373,0x00001F,950868,0.544091,1242126,0.710750,949902,0.543538,468088,0.267842
146093.750000,374,0x00001F,950910,0.544115,1241957,0.710654,950022,0.543607,468063,0.267828
146484.375000,375,0x00001F,950769,0.544034,1242144,0.710761,950011,0.543601,468056,0.267824
146875.000000,376,0x00001F,950972,0.544151,1242271,0.710833,949962,0.543573,468297,0.267962
147265.625000,377,0x00001F,950993,0.544163,1242184,0.710783,949921,0.543549,467903,0.267736
147656.250000,378,0x00001F,950829,0.544069,1242103,0.710737,949970,0.543577,468272,0.267947
148046.875000,379,0x00001F,950964,0.544146,1242109,0.710741,949940,0.543560,467996,0.267789
148437.500000,380,0x00001F,951001,0.544167,1242034,0.710698,950080,0.543640,468256,0.267938
148828.125000,381,0x00001F,950884,0.544100,1242093,0.710731,949884,0.543528,468312,0.267970
149218.750000,382,0x00001F,950665,0.543975,1241971,0.710662,949915,0.543546,468251,0.267935
149609.375000,383,0x00001F,950803,0.544054,1241738,0.710528,950185,0.543700,468350,0.267992
150000.000000,384,0x00001F,950813,0.544060,1242089,0.710729,949859,0.543514,468065,0.267829
150390.625000,385,0x00001F,950883,0.544100,1242187,0.710785,949768,0.543462,468179,0.267894
150781.250000,386,0x00001F,950985,0.544158,1242224,0.710806,950064,0.543631,468142,0.267873
151171.875000,387,0x00001F,950908,0.544114,1242317,0.710860,949758,0.543456,468505,0.268081
151562.500000,388,0x00001F,950888,0.544102,1242237,0.710814,949865,0.543517,468048,0.267819
151953.125000,389,0x00001F,950922,0.544122,1242294,0.710846,949949,0.543565,468317,0.267973
152343.750000,390,0x00001F,950981,0.544156,1242100,0.710735,950138,0.543673,468188,0.267899
152734.375000,391,0x00001F,950851,0.544081,1242184,0.710783,950097,0.543650,468216,0.267915
153125.000000,392,0x00001F,951306,0.544342,1241986,0.710670,949790,0.543474,468295,0.267961
153515.625000,393,0x00001F,951015,0.544175,1242129,0.710752,950111,0.543658,468251,0.267935
153906.250000,394,0x00001F,950819,0.544063,1242379,0.710895,950192,0.543704,468515,0.268086
154296.875000,395,0x00001F,950985,0.544158,1242069,0.710718,949808,0.543485,468368,0.268002
154687.500000,396,0x00001F,950758,0.544028,1241838,0.710585,949865,0.543517,468150,0.267878
155078.125000,397,0x00001F,950783,0.544042,1241866,0.710601,949897,0.543535,467911,0.267741
155468.750000,398,0x00001F,951198,0.544280,1241967,0.710659,950050,0.543623,468225,0.267920
155859.375000,399,0x00001F,950780,0.544041,1242243,0.710817,949752,0.543453,468090,0.267843
156250.000000,400,0x00001F,951060,0.544201,1241848,0.710591,950116,0.543661,468490,0.268072
156640.625000,401,0x00001F,950978,0.544154,1242211,0.710799,950040,0.543617,468110,0.267855
157031.250000,402,0x00001F,950823,0.544065,1242105,0.710738,950078,0.543639,467986,0.267784
157421.875000,403,0x00001F,950741,0.544018,1242149,0.710763,949831,0.543498,468250,0.267935
157812.500000,404,0x00001F,951106,0.544227,1241930,0.710638,950072,0.543636,468273,0.267948
158203.125000,405,0x00001F,950883,0.544100,1242125,0.710750,949847,0.543507,468380,0.268009
158593.750000,406,0x00001F,950736,0.544016,1242064,0.710715,949593,0.543361,468094,0.267846
158984.375000,407,0x00001F,950953,0.544140,1242209,0.710798,949959,0.543571,468025,0.267806
159375.000000,408,0x00001F,950814,0.544060,1242006,0.710682,949730,0.543440,467963,0.267771
159765.625000,409,0x00001F,951031,0.544184,1242035,0.710698,949724,0.543436,468164,0.267886
160156.250000,410,0x00001F,951342,0.544362,1242228,0.710809,949815,0.543489,468079,0.267837
160546.875000,411,0x00001F,950771,0.544036,1242125,0.710750,949515,0.543317,468203,0.267908
160937.500000,412,0x00001F,950891,0.544104,1241938,0.710643,950024,0.543608,467978,0.267779
161328.125000,413,0x00001F,950820,0.544064,1241868,0.710603,949894,0.543534,468222,0.267919
161718.750000,414,0x00001F,950863,0.544088,1242216,0.710802,949740,0.543446,468185,0.267898
162109.375000,415,0x00001F,950679,0.543983,1241758,0.710540,949956,0.543569,468280,0.267952
162500.000000,416,0x00001F,950826,0.544067,1242290,0.710844,950058,0.543628,468351,0.267993
162890.625000,417,0x00001F,951071,0.544207,1242036,0.710699,949798,0.543479,468151,0.267878
163281.250000,418,0x00001F,950966,0.544147,1241864,0.710600,949951,0.543566,468175,0.267892
163671.875000,419,0x00001F,951003,0.544168,1241852,0.710593,949895,0.543534,468292,0.267959
164062.500000,420,0x00001F,950768,0.544034,1241906,0.710624,949617,0.543375,468179,0.267894
164453.125000,421,0x00001F,950516,0.543890,1242030,0.710695,949723,0.543436,468401,0.268021
164843.750000,422,0x00001F,950885,0.544101,1242207,0.710797,949496,0.543306,467974,0.267777
165234.375000,423,0x00001F,950862,0.544088,1242052,0.710708,950002,0.543596,468278,0.267951
165625.000000,424,0x00001F,950851,0.544081,1242095,0.710732,950110,0.543657,468330,0.267981
166015.625000,425,0x00001F,951166,0.544262,1242078,0.710723,950038,0.543616,468137,0.267870
166406.250000,426,0x00001F,950940,0.544132,1242119,0.710746,949686,0.543415,468168,0.267888
166796.875000,427,0x00001F,950640,0.543961,1242348,0.710877,949932,0.543555,468127,0.267864
167187.500000,428,0x00001F,950955,0.544141,1242063,0.710714,949935,0.543557,468280,0.267952
167578.125000,429,0x00001F,950897,0.544108,1242178,0.710780,949594,0.543362,467888,0.267728
167968.750000,430,0x00001F,950724,0.544009,1242102,0.710737,949659,0.543399,468209,0.267911
168359.375000,431,0x00001F,950905,0.544112,1241823,0.710577,949813,0.543487,468162,0.267884
168750.000000,432,0x00001F,950873,0.544094,1242319,0.710861,950043,0.543619,468392,0.268016
169140.625000,433,0x00001F,950755,0.544026,1242187,0.710785,949787,0.543473,468136,0.267870
169531.250000,434,0x00001F,951184,0.544272,1242051,0.710707,949770,0.543463,468108,0.267854
169921.875000,435,0x00001F,950800,0.544052,1241988,0.710671,950213,0.543716,468356,0.267995
170312.500000,436,0x00001F,951258,0.544314,1242079,0.710723,950011,0.543601,468206,0.267910
170703.125000,437,0x00001F,951018,0.544177,1241927,0.710636,949890,0.543531,468027,0.267807
171093.750000,438,0x00001F,951019,0.544177,1242237,0.710814,949422,0.543264,467997,0.267790
171484.375000,439,0x00001F,950842,0.544076,1241965,0.710658,949728,0.543439,467982,0.267781
171875.000000,440,0x00001F,951032,0.544185,1241879,0.710609,949848,0.543507,468441,0.268044
172265.625000,441,0x00001F,950725,0.544009,1241732,0.710525,949598,0.543364,468157,0.267882
172656.250000,442,0x00001F,950602,0.543939,1242085,0.710727,949682,0.543412,468126,0.267864
173046.875000,443,0x00001F,950883,0.544100,1242305,0.710853,949521,0.543320,468010,0.267797
173437.500000,444,0x00001F,951080,0.544212,1241974,0.710663,949569,0.543348,468016,0.267801
173828.125000,445,0x00001F,950789,0.544046,1242122,0.710748,949909,0.543542,468491,0.268073
174218.750000,446,0x00001F,950899,0.544109,1241933,0.710640,949847,0.543507,468310,0.267969
174609.375000,447,0x00001F,951031,0.544184,1242067,0.710716,950039,0.543617,468300,0.267963
175000.000000,448,0x00001F,950921,0.544121,1242216,0.710802,950024,0.543608,468200,0.267906
175390.625000,449,0x00001F,950854,0.544083,1241990,0.710672,950110,0.543657,468072,0.267833
175781.250000,450,0x00001F,950830,0.544069,1242122,0.710748,949843,0.543505,468133,0.267868
176171.875000,451,0x00001F,950959,0.544143,1241775,0.710549,950095,0.543649,468137,0.267870
176562.500000,452,0x00001F,950958,0.544143,1241848,0.710591,949822,0.543493,468015,0.267800
176953.125000,453,0x00001F,950897,0.544108,1242073,0.710720,949858,0.543513,468528,0.268094
177343.750000,454,0x00001F,951135,0.544244,1241925,0.710635,949825,0.543494,468265,0.267943
177734.375000,455,0x00001F,951028,0.544183,1242123,0.710748,949772,0.543464,468154,0.267880
178125.000000,456,0x00001F,950942,0.544133,1242106,0.710739,949929,0.543554,468588,0.268128
178515.625000,457,0x00001F,950741,0.544018,1242309,0.710855,949795,0.543477,468395,0.268018
178906.250000,458,0x00001F,950811,0.544058,1241871,0.710604,950115,0.543660,468242,0.267930
179296.875000,459,0x00001F,950735,0.544015,1241927,0.710636,949740,0.543446,468364,0.268000
179687.500000,460,0x00001F,950797,0.544050,1242172,0.710777,950181,0.543698,468163,0.267885
180078.125000,461,0x00001F,950774,0.544037,1242078,0.710723,949557,0.543341,468360,0.267998
180468.750000,462,0x00001F,951167,0.544262,1242457,0.710940,950010,0.543600,468093,0.267845
180859.375000,463,0x00001F,950782,0.544042,1241988,0.710671,949890,0.543531,468184,0.267897
181250.000000,464,0x00001F,950827,0.544068,1242052,0.710708,949836,0.543501,468276,0.267950
181640.625000,465,0x00001F,950890,0.544104,1242272,0.710834,949744,0.543448,468166,0.267887
182031.250000,466,0x00001F,950867,0.544091,1241802,0.710565,949959,0.543571,468065,0.267829
182421.875000,467,0x00001F,950836,0.544073,1241837,0.710585,949901,0.543538,468136,0.267870
182812.500000,468,0x00001F,950882,0.544099,1241961,0.710656,949941,0.543561,468126,0.267864
183203.125000,469,0x00001F,950769,0.544034,1241953,0.710651,949874,0.543522,468320,0.267975
183593.750000,470,0x00001F,950586,0.543930,1242169,0.710775,949861,0.543515,468012,0.267799
183984.375000,471,0x00001F,950920,0.544121,1242128,0.710751,949836,0.543501,468109,0.267854
184375.000000,472,0x00001F,950444,0.543848,1241985,0.710670,949908,0.543542,468172,0.267890
184765.625000,473,0x00001F,951027,0.544182,1241896,0.710619,949934,0.543557,468147,0.267876
185156.250000,474,0x00001F,950976,0.544153,1242343,0.710874,949893,0.543533,468267,0.267945
185546.875000,475,0x00001F,951231,0.544299,1242455,0.710938,949803,0.543482,468024,0.267805
185937.500000,476,0x00001F,950891,0.544104,1242073,0.710720,949902,0.543538,468197,0.267904
186328.125000,477,0x00001F,950923,0.544123,1242137,0.710757,949767,0.543461,468218,0.267917
186718.750000,478,0x00001F,950819,0.544063,1242173,0.710777,949779,0.543468,468226,0.267921
187109.375000,479,0x00001F,950804,0.544054,1241711,0.710513,950117,0.543661,468289,0.267957
187500.000000,480,0x00001F,950773,0.544037,1242072,0.710719,950274,0.543751,468046,0.267818
187890.625000,481,0x00001F,950601,0.543938,1241937,0.710642,949864,0.543517,467846,0.267704
188281.250000,482,0x00001F,950981,0.544156,1241766,0.710544,949824,0.543494,468233,0.267925
188671.875000,483,0x00001F,950836,0.544073,1242105,0.710738,949762,0.543458,468066,0.267830
189062.500000,484,0x00001F,951014,0.544175,1242173,0.710777,949860,0.543514,468357,0.267996
189453.125000,485,0x00001F,950943,0.544134,1241949,0.710649,950031,0.543612,468175,0.267892
189843.750000,486,0x00001F,951163,0.544260,1242199,0.710792,949999,0.543594,468144,0.267874
190234.375000,487,0x00001F,950709,0.544000,1241938,0.710643,949772,0.543464,468235,0.267926
190625.000000,488,0x00001F,950982,0.544156,1242176,0.710779,949744,0.543448,468090,0.267843
191015.625000,489,0x00001F,950758,0.544028,1241823,0.710577,950037,0.543616,468251,0.267935
191406.250000,490,0x00001F,950845,0.544078,1242123,0.710748,949855,0.543511,468291,0.267958
191796.875000,491,0x00001F,950893,0.544105,1241968,0.710660,949728,0.543439,468199,0.267906
192187.500000,492,0x00001F,951007,0.544171,1242091,0.710730,950094,0.543648,468207,0.267910
192578.125000,493,0x00001F,950922,0.544122,1241966,0.710659,949771,0.543463,468212,0.267913
192968.750000,494,0x00001F,951052,0.544196,1242134,0.710755,950040,0.543617,468037,0.267813
193359.375000,495,0x00001F,951020,0.544178,1242224,0.710806,949940,0.543560,468085,0.267840
193750.000000,496,0x00001F,951019,0.544177,1242268,0.710831,950036,0.543615,468361,0.267998
194140.625000,497,0x00001F,950807,0.544056,1242164,0.710772,949716,0.543432,468314,0.267971
194531.250000,498,0x00001F,950847,0.544079,1242415,0.710916,949977,0.543581,468231,0.267924
194921.875000,499,0x00001F,950887,0.544102,1242156,0.710767,949823,0.543493,468031,0.267810
195312.500000,500,0x00001F,950912,0.544116,1241777,0.710551,949598,0.543364,468259,0.267940
195703.125000,501,0x00001F,950941,0.544133,1242044,0.710703,950124,0.543665,468235,0.267926
196093.750000,502,0x00001F,950641,0.543961,1241941,0.710644,950028,0.543610,468080,0.267838
196484.375000,503,0x00001F,950906,0.544113,1242182,0.710782,949798,0.543479,468146,0.267875
196875.000000,504,0x00001F,950833,0.544071,1241989,0.710672,950020,0.543606,468198,0.267905
197265.625000,505,0x00001F,950829,0.544069,1241801,0.710564,949786,0.543472,468617,0.268145
197656.250000,506,0x00001F,950804,0.544054,1241916,0.710630,949834,0.543499,468218,0.267917
198046.875000,507,0x00001F,951020,0.544178,1241998,0.710677,949880,0.543526,468499,0.268077
198437.500000,508,0x00001F,950968,0.544148,1242207,0.710797,950004,0.543597,468176,0.267892
198828.125000,509,0x00001F,951033,0.544185,1241855,0.710595,949930,0.543554,468258,0.267939
199218.750000,510,0x00001F,951019,0.544177,1242086,0.710727,949575,0.543351,467990,0.267786
199609.375000,511,0x00001F,951017,0.544176,1242048,0.710706,949945,0.543563,467877,0.267721
200000.000000,512,0x00001F,950973,0.544151,1241998,0.710677,949611,0.543372,468015,0.267800
200390.625000,513,0x00001F,950826,0.544067,1242164,0.710772,950057,0.543627,468286,0.267955
200781.250000,514,0x00001F,950766,0.544033,1242002,0.710679,949845,0.543506,467943,0.267759
201171.875000,515,0x00001F,951223,0.544294,1241936,0.710642,949876,0.543523,468017,0.267801
201562.500000,516,0x00001F,950753,0.544025,1242166,0.710773,949899,0.543537,468242,0.267930
201953.125000,517,0x00001F,950744,0.544020,1242050,0.710707,950018,0.543605,468021,0.267804
202343.750000,518,0x00001F,951092,0.544219,1241944,0.710646,949813,0.543487,468100,0.267849
202734.375000,519,0x00001F,950931,0.544127,1242104,0.710738,950222,0.543721,468086,0.267841
203125.000000,520,0x00001F,950351,0.543795,1242034,0.710698,949869,0.543519,468243,0.267931
203515.625000,521,0x00001F,951128,0.544240,1242162,0.710771,949980,0.543583,468082,0.267839
203906.250000,522,0x00001F,950769,0.544034,1242066,0.710716,949957,0.543570,468209,0.267911
204296.875000,523,0x00001F,950966,0.544147,1242120,0.710747,950078,0.543639,468204,0.267908
204687.500000,524,0x00001F,950937,0.544131,1242212,0.710799,950002,0.543596,468031,0.267810
205078.125000,525,0x00001F,951189,0.544275,1241986,0.710670,950104,0.543654,468183,0.267896
205468.750000,526,0x00001F,950918,0.544120,1242063,0.710714,949919,0.543548,468216,0.267915
205859.375000,527,0x00001F,950928,0.544125,1242134,0.710755,950077,0.543638,468069,0.267831
206250.000000,528,0x00001F,950878,0.544097,1242133,0.710754,949896,0.543535,468159,0.267883
206640.625000,529,0x00001F,950893,0.544105,1242029,0.710695,950069,0.543634,468228,0.267922
207031.250000,530,0x00001F,950906,0.544113,1242272,0.710834,949868,0.543519,468092,0.267844
207421.875000,531,0x00001F,951004,0.544169,1242171,0.710776,949761,0.543458,468267,0.267945
207812.500000,532,0x00001F,950948,0.544137,1242228,0.710809,949561,0.543343,468097,0.267847
208203.125000,533,0x00001F,950937,0.544131,1242307,0.710854,950060,0.543629,468469,0.268060
208593.750000,534,0x00001F,950825,0.544066,1242261,0.710827,950024,0.543608,468101,0.267850
208984.375000,535,0x00001F,950981,0.544156,1241914,0.710629,949982,0.543584,468029,0.267808
209375.000000,536,0x00001F,950875,0.544095,1241865,0.710601,949924,0.543551,468172,0.267890
209765.625000,537,0x00001F,950893,0.544105,1241995,0.710675,950032,0.543613,468339,0.267986
210156.250000,538,0x00001F,950932,0.544128,1242043,0.710703,949671,0.543406,468384,0.268011
210546.875000,539,0x00001F,950924,0.544123,1242012,0.710685,949776,0.543466,468005,0.267795
210937.500000,540,0x00001F,950909,0.544115,1241993,0.710674,949840,0.543503,468110,0.267855
211328.125000,541,0x00001F,950833,0.544071,1241849,0.710592,949760,0.543457,468212,0.267913
211718.750000,542,0x00001F,950729,0.544012,1241952,0.710651,949711,0.543429,468436,0.268041
212109.375000,543,0x00001F,950995,0.544164,1242128,0.710751,949890,0.543531,468192,0.267902
212500.000000,544,0x00001F,950794,0.544049,1242120,0.710747,949790,0.543474,468433,0.268040
212890.625000,545,0x00001F,950770,0.544035,1241917,0.710631,950104,0.543654,468345,0.267989
213281.250000,546,0x00001F,950940,0.544132,1242100,0.710735,949959,0.543571,468472,0.268062
213671.875000,547,0x00001F,950772,0.544036,1242178,0.710780,950081,0.543641,468145,0.267875
214062.500000,548,0x00001F,951110,0.544230,1241688,0.710500,949826,0.543495,468180,0.267895
214453.125000,549,0x00001F,950718,0.544005,1242015,0.710687,949933,0.543556,468360,0.267998
214843.750000,550,0x00001F,950983,0.544157,1242153,0.710766,949762,0.543458,468090,0.267843
215234.375000,551,0x00001F,950680,0.543983,1242074,0.710720,949661,0.543400,468096,0.267847
215625.000000,552,0x00001F,951082,0.544214,1241934,0.710640,949671,0.543406,468160,0.267883
216015.625000,553,0x00001F,950812,0.544059,1241976,0.710664,950018,0.543605,468405,0.268023
216406.250000,554,0x00001F,950695,0.543992,1242304,0.710852,950042,0.543618,468224,0.267920
216796.875000,555,0x00001F,950933,0.544128,1242115,0.710744,949774,0.543465,468099,0.267848
217187.500000,556,0x00001F,950787,0.544045,1242228,0.710809,949919,0.543548,468272,0.267947
217578.125000,557,0x00001F,950846,0.544078,1242041,0.710702,949827,0.543495,468366,0.268001
217968.750000,558,0x00001F,950819,0.544063,1242093,0.710731,949991,0.543589,468160,0.267883
218359.375000,559,0x00001F,951001,0.544167,1242188,0.710786,949767,0.543461,468175,0.267892
218750.000000,560,0x00001F,950990,0.544161,1242097,0.710734,949960,0.543571,468211,0.267913
219140.625000,561,0x00001F,951037,0.544188,1242236,0.710813,949733,0.543442,468006,0.267795
219531.250000,562,0x00001F,951124,0.544238,1242069,0.710718,950052,0.543624,468075,0.267835
219921.875000,563,0x00001F,950916,0.544119,1242164,0.710772,949792,0.543475,468296,0.267961
220312.500000,564,0x00001F,950838,0.544074,1241811,0.710570,949889,0.543531,468360,0.267998
220703.125000,565,0x00001F,950791,0.544047,1241914,0.710629,949813,0.543487,468273,0.267948
221093.750000,566,0x00001F,950938,0.544131,1242171,0.710776,950046,0.543621,468383,0.268011
221484.375000,567,0x00001F,950857,0.544085,1242438,0.710929,949783,0.543470,467984,0.267783
221875.000000,568,0x00001F,950641,0.543961,1241953,0.710651,950052,0.543624,468331,0.267981
222265.625000,569,0x00001F,950926,0.544124,1242129,0.710752,950078,0.543639,468154,0.267880
222656.250000,570,0x00001F,950957,0.544142,1242155,0.710767,949830,0.543497,468346,0.267990
223046.875000,571,0x00001F,951056,0.544199,1242494,0.710961,949976,0.543581,468003,0.267793
223437.500000,572,0x00001F,950938,0.544131,1242116,0.710745,949932,0.543555,468202,0.267907
223828.125000,573,0x00001F,950794,0.544049,1242135,0.710755,949836,0.543501,468314,0.267971
224218.750000,574,0x00001F,951024,0.544180,1241974,0.710663,949654,0.543396,468238,0.267928
224609.375000,575,0x00001F,951007,0.544171,1242159,0.710769,949888,0.543530,468167,0.267887
225000.000000,576,0x00001F,950747,0.544022,1242019,0.710689,949920,0.543549,468030,0.267809
225390.625000,577,0x00001F,950875,0.544095,1241783,0.710554,949990,0.543589,468083,0.267839
225781.250000,578,0x00001F,950852,0.544082,1241782,0.710553,950118,0.543662,468219,0.267917
226171.875000,579,0x00001F,950845,0.544078,1242122,0.710748,949689,0.543416,468235,0.267926
226562.500000,580,0x00001F,950724,0.544009,1242144,0.710761,949840,0.543503,468187,0.267899
226953.125000,581,0x00001F,950962,0.544145,1242077,0.710722,949853,0.543510,468326,0.267978
227343.750000,582,0x00001F,951072,0.544208,1241848,0.710591,950030,0.543612,468473,0.268062
227734.375000,583,0x00001F,950812,0.544059,1242052,0.710708,949786,0.543472,468424,0.268034
228125.000000,584,0x00001F,950936,0.544130,1242078,0.710723,949847,0.543507,468316,0.267973
228515.625000,585,0x00001F,950849,0.544080,1242166,0.710773,949995,0.543591,468371,0.268004
228906.250000,586,0x00001F,950898,0.544108,1242288,0.710843,949883,0.543527,468088,0.267842
229296.875000,587,0x00001F,950741,0.544018,1242170,0.710775,950084,0.543642,468321,0.267975
229687.500000,588,0x00001F,951183,0.544271,1242224,0.710806,950353,0.543796,468267,0.267945
230078.125000,589,0x00001F,950890,0.544104,1242346,0.710876,949874,0.543522,468111,0.267855
230468.750000,590,0x00001F,951156,0.544256,1242210,0.710798,949817,0.543490,468364,0.268000
230859.375000,591,0x00001F,951103,0.544226,1242209,0.710798,949848,0.543507,468316,0.267973
231250.000000,592,0x00001F,950964,0.544146,1241913,0.710628,949991,0.543589,468291,0.267958
231640.625000,593,0x00001F,950866,0.544090,1242094,0.710732,949924,0.543551,468281,0.267953
232031.250000,594,0x00001F,950895,0.544106,1242227,0.710808,949960,0.543571,468070,0.267832
232421.875000,595,0x00001F,951145,0.544250,1242041,0.710702,949967,0.543576,468218,0.267917
232812.500000,596,0x00001F,950957,0.544142,1242019,0.710689,949758,0.543456,468456,0.268053
233203.125000,597,0x00001F,950906,0.544113,1242056,0.710710,949660,0.543400,468013,0.267799
233593.750000,598,0x00001F,950589,0.543931,1241902,0.710622,949689,0.543416,468275,0.267949
233984.375000,599,0x00001F,950584,0.543929,1242018,0.710688,949835,0.543500,468251,0.267935
234375.000000,600,0x00001F,951098,0.544223,1242043,0.710703,950184,0.543700,468278,0.267951
234765.625000,601,0x00001F,950858,0.544085,1242024,0.710692,949992,0.543590,468242,0.267930
235156.250000,602,0x00001F,951189,0.544275,1242335,0.710870,949605,0.543368,468204,0.267908
235546.875000,603,0x00001F,950973,0.544151,1242127,0.710751,949995,0.543591,468139,0.267871
235937.500000,604,0x00001F,950954,0.544140,1242053,0.710708,949873,0.543522,468314,0.267971
236328.125000,605,0x00001F,951022,0.544179,1241985,0.710670,949875,0.543523,468270,0.267946
236718.750000,606,0x00001F,950737,0.544016,1242154,0.710766,949852,0.543510,468092,0.267844
237109.375000,607,0x00001F,951007,0.544171,1241825,0.710578,950256,0.543741,468217,0.267916
237500.000000,608,0x00001F,950944,0.544135,1242092,0.710731,949888,0.543530,468216,0.267915
237890.625000,609,0x00001F,951234,0.544300,1242442,0.710931,949697,0.543421,468321,0.267975
238281.250000,610,0x00001F,950957,0.544142,1242100,0.710735,950015,0.543603,468267,0.267945
238671.875000,611,0x00001F,951074,0.544209,1242226,0.710807,949841,0.543503,467990,0.267786
239062.500000,612,0x00001F,950846,0.544078,1241737,0.710528,950105,0.543654,468256,0.267938
239453.125000,613,0x00001F,950760,0.544029,1242297,0.710848,949909,0.543542,468333,0.267982
239843.750000,614,0x00001F,951021,0.544179,1241867,0.710602,949834,0.543499,468117,0.267859
240234.375000,615,0x00001F,950900,0.544109,1241953,0.710651,949776,0.543466,468183,0.267896
240625.000000,616,0x00001F,950789,0.544046,1241965,0.710658,949746,0.543449,468152,0.267879
241015.625000,617,0x00001F,950656,0.543970,1242183,0.710783,950000,0.543594,468058,0.267825
241406.250000,618,0x00001F,951011,0.544173,1241870,0.710604,949682,0.543412,468410,0.268026
241796.875000,619,0x00001F,951056,0.544199,1242191,0.710787,949779,0.543468,468091,0.267844
242187.500000,620,0x00001F,951011,0.544173,1241988,0.710671,949708,0.543427,468363,0.267999
242578.125000,621,0x00001F,950869,0.544092,1241944,0.710646,950106,0.543655,468438,0.268042
242968.750000,622,0x00001F,951138,0.544246,1242235,0.710813,949723,0.543436,467937,0.267756
243359.375000,623,0x00001F,950773,0.544037,1242064,0.710715,949789,0.543474,468135,0.267869
243750.000000,624,0x00001F,950890,0.544104,1242039,0.710700,949726,0.543438,468218,0.267917
244140.625000,625,0x00001F,950951,0.544139,1242332,0.710868,949542,0.543332,468263,0.267942
244531.250000,626,0x00001F,951130,0.544241,1242193,0.710789,949807,0.543484,468170,0.267889
244921.875000,627,0x00001F,950751,0.544024,1242028,0.710694,949969,0.543577,468555,0.268109
245312.500000,628,0x00001F,950913,0.544117,1242113,0.710743,949818,0.543490,468048,0.267819
245703.125000,629,0x00001F,950899,0.544109,1241805,0.710567,949913,0.543545,468178,0.267894
246093.750000,630,0x00001F,951353,0.544369,1241956,0.710653,949933,0.543556,468252,0.267936
246484.375000,631,0x00001F,950869,0.544092,1242139,0.710758,949860,0.543514,468323,0.267977
246875.000000,632,0x00001F,950768,0.544034,1242151,0.710765,950151,0.543681,468430,0.268038
247265.625000,633,0x00001F,950976,0.544153,1241654,0.710480,949943,0.543562,467974,0.267777
247656.250000,634,0x00001F,950811,0.544058,1242097,0.710734,949667,0.543404,468288,0.267957
248046.875000,635,0x00001F,950684,0.543986,1242143,0.710760,950038,0.543616,468228,0.267922
248437.500000,636,0x00001F,950799,0.544052,1242130,0.710752,950148,0.543679,468137,0.267870
248828.125000,637,0x00001F,950870,0.544092,1242309,0.710855,949837,0.543501,468161,0.267884
249218.750000,638,0x00001F,950883,0.544100,1241947,0.710648,950119,0.543662,468510,0.268084
249609.375000,639,0x00001F,950851,0.544081,1242160,0.710770,949931,0.543555,468130,0.267866
250000.000000,640,0x00001F,950932,0.544128,1241694,0.710503,950015,0.543603,468198,0.267905
250390.625000,641,0x00001F,950818,0.544062,1242354,0.710881,949870,0.543520,468385,0.268012
250781.250000,642,0x00001F,950984,0.544157,1242191,0.710787,949655,0.543397,468204,0.267908
251171.875000,643,0x00001F,950729,0.544012,1242047,0.710705,949591,0.543360,468275,0.267949
251562.500000,644,0x00001F,951074,0.544209,1242126,0.710750,950045,0.543620,468254,0.267937
251953.125000,645,0x00001F,950785,0.544044,1242058,0.710711,950019,0.543605,468098,0.267848
252343.750000,646,0x00001F,950725,0.544009,1242221,0.710805,949938,0.543559,468003,0.267793
252734.375000,647,0x00001F,951040,0.544189,1242111,0.710742,949818,0.543490,468206,0.267910
253125.000000,648,0x00001F,951194,0.544278,1242114,0.710743,949692,0.543418,468339,0.267986
253515.625000,649,0x00001F,950845,0.544078,1242211,0.710799,949854,0.543511,467932,0.267753
253906.250000,650,0x00001F,950942,0.544133,1241919,0.710632,949830,0.543497,468136,0.267870
254296.875000,651,0x00001F,950900,0.544109,1242090,0.710730,949660,0.543400,468066,0.267830
254687.500000,652,0x00001F,950975,0.544152,1241957,0.710654,949918,0.543547,468217,0.267916
255078.125000,653,0x00001F,951085,0.544215,1241960,0.710655,949770,0.543463,468307,0.267967
255468.750000,654,0x00001F,951007,0.544171,1242069,0.710718,950090,0.543646,468309,0.267969
255859.375000,655,0x00001F,951386,0.544387,1242047,0.710705,949725,0.543437,468208,0.267911
256250.000000,656,0x00001F,950846,0.544078,1242056,0.710710,949825,0.543494,468362,0.267999
256640.625000,657,0x00001F,951091,0.544219,1242371,0.710890,950205,0.543712,468376,0.268007
257031.250000,658,0x00001F,950929,0.544126,1241999,0.710678,949950,0.543566,468520,0.268089
257421.875000,659,0x00001F,950939,0.544132,1242190,0.710787,950062,0.543630,468328,0.267979
257812.500000,660,0x00001F,950988,0.544160,1242188,0.710786,949765,0.543460,467980,0.267780
258203.125000,661,0x00001F,950801,0.544053,1241920,0.710632,950051,0.543624,468470,0.268061
258593.750000,662,0x00001F,950818,0.544062,1242060,0.710712,950160,0.543686,468108,0.267854
258984.375000,663,0x00001F,951048,0.544194,1242101,0.710736,949949,0.543565,468184,0.267897
259375.000000,664,0x00001F,951013,0.544174,1241840,0.710587,949774,0.543465,467941,0.267758
259765.625000,665,0x00001F,951122,0.544236,1242322,0.710862,949854,0.543511,468460,0.268055
260156.250000,666,0x00001F,950897,0.544108,1242295,0.710847,949732,0.543441,468082,0.267839
260546.875000,667,0x00001F,950927,0.544125,1242248,0.710820,950019,0.543605,468076,0.267835
260937.500000,668,0x00001F,950889,0.544103,1242107,0.710739,950081,0.543641,468506,0.268081
261328.125000,669,0x00001F,950987,0.544159,1242094,0.710732,950041,0.543618,468000,0.267792
261718.750000,670,0x00001F,951192,0.544276,1242315,0.710858,949888,0.543530,468068,0.267831
262109.375000,671,0x00001F,950833,0.544071,1241935,0.710641,949954,0.543568,468269,0.267946
262500.000000,672,0x00001F,950833,0.544071,1242006,0.710682,949978,0.543582,468202,0.267907
262890.625000,673,0x00001F,950892,0.544105,1242079,0.710723,949942,0.543561,468249,0.267934
263281.250000,674,0x00001F,950882,0.544099,1241893,0.710617,949886,0.543529,468376,0.268007
263671.875000,675,0x00001F,950748,0.544022,1242007,0.710682,950103,0.543653,468219,0.267917
264062.500000,676,0x00001F,951159,0.544258,1242075,0.710721,949689,0.543416,468374,0.268006
264453.125000,677,0x00001F,951026,0.544181,1242144,0.710761,949565,0.543345,467885,0.267726
264843.750000,678,0x00001F,951052,0.544196,1242046,0.710704,949837,0.543501,468129,0.267866
265234.375000,679,0x00001F,950781,0.544041,1242285,0.710841,949823,0.543493,468156,0.267881
265625.000000,680,0x00001F,950912,0.544116,1241946,0.710647,949953,0.543567,468378,0.268008
266015.625000,681,0x00001F,950985,0.544158,1242107,0.710739,950184,0.543700,468060,0.267826
266406.250000,682,0x00001F,950821,0.544064,1241928,0.710637,950162,0.543687,468178,0.267894
266796.875000,683,0x00001F,950899,0.544109,1242001,0.710679,949936,0.543558,468317,0.267973
267187.500000,684,0x00001F,950991,0.544161,1241877,0.710608,949929,0.543554,468281,0.267953
267578.125000,685,0x00001F,951122,0.544236,1241988,0.710671,950035,0.543614,468088,0.267842
267968.750000,686,0x00001F,951071,0.544207,1242154,0.710766,950112,0.543658,468130,0.267866
268359.375000,687,0x00001F,951056,0.544199,1242228,0.710809,949635,0.543386,468022,0.267804
268750.000000,688,0x00001F,950867,0.544091,1242046,0.710704,949694,0.543419,468504,0.268080
269140.625000,689,0x00001F,950850,0.544081,1242352,0.710880,949612,0.543372,468218,0.267917
269531.250000,690,0x00001F,950873,0.544094,1242048,0.710706,949897,0.543535,468238,0.267928
269921.875000,691,0x00001F,950985,0.544158,1242153,0.710766,950150,0.543680,468372,0.268005
270312.500000,692,0x00001F,951039,0.544189,1242227,0.710808,949781,0.543469,468093,0.267845
270703.125000,693,0x00001F,950970,0.544149,1241906,0.710624,949776,0.543466,468095,0.267846
271093.750000,694,0x00001F,951108,0.544228,1242131,0.710753,949780,0.543468,468165,0.267886
271484.375000,695,0x00001F,950953,0.544140,1242113,0.710743,949855,0.543511,468060,0.267826
271875.000000,696,0x00001F,950759,0.544029,1242032,0.710696,950081,0.543641,468352,0.267993
272265.625000,697,0x00001F,950911,0.544116,1242131,0.710753,950043,0.543619,468163,0.267885
272656.250000,698,0x00001F,950874,0.544095,1241841,0.710587,950340,0.543789,468143,0.267874
273046.875000,699,0x00001F,950662,0.543973,1242316,0.710859,949685,0.543414,468300,0.267963
273437.500000,700,0x00001F,950918,0.544120,1242077,0.710722,950003,0.543596,468480,0.268066
273828.125000,701,0x00001F,950941,0.544133,1241819,0.710575,949822,0.543493,468015,0.267800
274218.750000,702,0x00001F,951158,0.544257,1242055,0.710710,949611,0.543372,468161,0.267884
274609.375000,703,0x00001F,950986,0.544159,1241894,0.710617,949648,0.543393,468281,0.267953
275000.000000,704,0x00001F,951008,0.544171,1242074,0.710720,950079,0.543640,468158,0.267882
275390.625000,705,0x00001F,950842,0.544076,1242156,0.710767,949827,0.543495,468264,0.267943
275781.250000,706,0x00001F,951218,0.544291,1242110,0.710741,950008,0.543599,468101,0.267850
276171.875000,707,0x00001F,950792,0.544048,1242136,0.710756,950261,0.543744,468207,0.267910
276562.500000,708,0x00001F,950521,0.543893,1242131,0.710753,949805,0.543483,468067,0.267830
276953.125000,709,0x00001F,950776,0.544038,1242020,0.710690,950017,0.543604,468326,0.267978
277343.750000,710,0x00001F,950851,0.544081,1242211,0.710799,949762,0.543458,468023,0.267805
277734.375000,711,0x00001F,950988,0.544160,1242050,0.710707,949976,0.543581,467867,0.267716
278125.000000,712,0x00001F,951006,0.544170,1242095,0.710732,949842,0.543504,468037,0.267813
278515.625000,713,0x00001F,950726,0.544010,1242186,0.710785,950155,0.543683,468237,0.267927
278906.250000,714,0x00001F,951160,0.544258,1242210,0.710798,949949,0.543565,468231,0.267924
279296.875000,715,0x00001F,951054,0.544197,1242227,0.710808,949763,0.543459,468166,0.267887
279687.500000,716,0x00001F,950956,0.544141,1242066,0.710716,949967,0.543576,468071,0.267832
280078.125000,717,0x00001F,950757,0.544028,1241875,0.710607,949855,0.543511,467919,0.267745
280468.750000,718,0x00001F,951058,0.544200,1242215,0.710801,949849,0.543508,468184,0.267897
280859.375000,719,0x00001F,950821,0.544064,1242198,0.710791,950014,0.543602,468188,0.267899
281250.000000,720,0x00001F,950771,0.544036,1242119,0.710746,950025,0.543609,468302,0.267965
281640.625000,721,0x00001F,950652,0.543967,1242109,0.710741,949836,0.543501,468287,0.267956
282031.250000,722,0x00001F,951052,0.544196,1242173,0.710777,950026,0.543609,468439,0.268043
282421.875000,723,0x00001F,951000,0.544167,1241917,0.710631,949960,0.543571,468054,0.267823
282812.500000,724,0x00001F,951005,0.544169,1241983,0.710668,950259,0.543743,468183,0.267896
283203.125000,725,0x00001F,950980,0.544155,1241974,0.710663,949838,0.543502,468048,0.267819
283593.750000,726,0x00001F,950869,0.544092,1242162,0.710771,949846,0.543506,468085,0.267840
283984.375000,727,0x00001F,950935,0.544129,1242010,0.710684,950184,0.543700,467777,0.267664
284375.000000,728,0x00001F,950829,0.544069,1242201,0.710793,949854,0.543511,468084,0.267840
284765.625000,729,0x00001F,950793,0.544048,1241812,0.710571,950076,0.543638,468216,0.267915
285156.250000,730,0x00001F,950885,0.544101,1242302,0.710851,949715,0.543431,468236,0.267927
285546.875000,731,0x00001F,951083,0.544214,1241717,0.710516,950006,0.543598,468403,0.268022
285937.500000,732,0x00001F,951111,0.544230,1242192,0.710788,950145,0.543677,468200,0.267906
286328.125000,733,0x00001F,950897,0.544108,1242124,0.710749,949841,0.543503,468397,0.268019
286718.750000,734,0x00001F,951087,0.544216,1242104,0.710738,949678,0.543410,468290,0.267958
287109.375000,735,0x00001F,950863,0.544088,1241889,0.710615,949971,0.543578,468229,0.267923
287500.000000,736,0x00001F,951080,0.544212,1242073,0.710720,949895,0.543534,468165,0.267886
287890.625000,737,0x00001F,951023,0.544180,1241992,0.710674,949811,0.543486,468070,0.267832
288281.250000,738,0x00001F,950895,0.544106,1242065,0.710715,949959,0.543571,468274,0.267949
288671.875000,739,0x00001F,950874,0.544095,1242137,0.710757,949791,0.543475,468101,0.267850
289062.500000,740,0x00001F,950979,0.544155,1242134,0.710755,949792,0.543475,468372,0.268005
289453.125000,741,0x00001F,950789,0.544046,1242260,0.710827,949935,0.543557,468104,0.267851
289843.750000,742,0x00001F,950870,0.544092,1241896,0.710619,950196,0.543707,468290,0.267958
290234.375000,743,0x00001F,950967,0.544148,1241884,0.710612,949664,0.543402,468219,0.267917
290625.000000,744,0x00001F,950866,0.544090,1241956,0.710653,949803,0.543482,467912,0.267741
291015.625000,745,0x00001F,950648,0.543965,1242296,0.710847,950036,0.543615,468246,0.267933
291406.250000,746,0x00001F,950941,0.544133,1241894,0.710617,949985,0.543586,468104,0.267851
291796.875000,747,0x00001F,951064,0.544203,1241865,0.710601,949906,0.543541,468117,0.267859
292187.500000,748,0x00001F,950842,0.544076,1242044,0.710703,949949,0.543565,468215,0.267915
292578.125000,749,0x00001F,950701,0.543995,1242148,0.710763,949940,0.543560,468439,0.268043
292968.750000,750,0x00001F,951000,0.544167,1242085,0.710727,950017,0.543604,468228,0.267922
293359.375000,751,0x00001F,950953,0.544140,1242071,0.710719,949765,0.543460,468454,0.268052
293750.000000,752,0x00001F,951051,0.544196,1242309,0.710855,950149,0.543680,468278,0.267951
294140.625000,753,0x00001F,950936,0.544130,1242117,0.710745,950090,0.543646,468150,0.267878
294531.250000,754,0x00001F,950841,0.544076,1242056,0.710710,949905,0.543540,468228,0.267922
294921.875000,755,0x00001F,951144,0.544249,1241659,0.710483,950233,0.543728,468456,0.268053
295312.500000,756,0x00001F,950772,0.544036,1242023,0.710691,949788,0.543473,468198,0.267905
295703.125000,757,0x00001F,951190,0.544275,1242219,0.710803,949982,0.543584,468344,0.267989
296093.750000,758,0x00001F,951117,0.544234,1241938,0.710643,949892,0.543533,468267,0.267945
296484.375000,759,0x00001F,951191,0.544276,1242291,0.710845,950511,0.543887,468540,0.268101
296875.000000,760,0x00001F,951169,0.544263,1242098,0.710734,949899,0.543537,468414,0.268029
297265.625000,761,0x00001F,951287,0.544331,1242065,0.710715,950081,0.543641,468448,0.268048
297656.250000,762,0x00001F,950888,0.544102,1241824,0.710577,949683,0.543413,468291,0.267958
298046.875000,763,0x00001F,951007,0.544171,1242326,0.710865,949783,0.543470,468250,0.267935
298437.500000,764,0x00001F,950973,0.544151,1242134,0.710755,949723,0.543436,468175,0.267892
298828.125000,765,0x00001F,950876,0.544096,1242288,0.710843,949650,0.543394,468154,0.267880
299218.750000,766,0x00001F,950988,0.544160,1242122,0.710748,950155,0.543683,468146,0.267875
299609.375000,767,0x00001F,950926,0.544124,1242147,0.710762,949983,0.543585,468241,0.267930
300000.000000,768,0x00001F,950892,0.544105,1242153,0.710766,949750,0.543451,468241,0.267930
300390.625000,769,0x00001F,951040,0.544189,1242285,0.710841,949788,0.543473,468121,0.267861
300781.250000,770,0x00001F,950921,0.544121,1242086,0.710727,949940,0.543560,468272,0.267947
301171.875000,771,0x00001F,950586,0.543930,1242075,0.710721,949946,0.543563,468422,0.268033
301562.500000,772,0x00001F,951205,0.544284,1241964,0.710658,949864,0.543517,467770,0.267660
301953.125000,773,0x00001F,950896,0.544107,1242267,0.710831,950057,0.543627,468344,0.267989
302343.750000,774,0x00001F,950782,0.544042,1241888,0.710614,950223,0.543722,468272,0.267947
302734.375000,775,0x00001F,950960,0.544144,1241948,0.710648,949676,0.543409,467994,0.267788
303125.000000,776,0x00001F,950925,0.544124,1242306,0.710853,949927,0.543553,468177,0.267893
303515.625000,777,0x00001F,951027,0.544182,1242118,0.710746,949758,0.543456,468157,0.267882
303906.250000,778,0x00001F,950739,0.544017,1242038,0.710700,949943,0.543562,468304,0.267966
304296.875000,779,0x00001F,950923,0.544123,1241851,0.710593,950209,0.543714,468223,0.267919
304687.500000,780,0x00001F,950812,0.544059,1242240,0.710815,950089,0.543645,468080,0.267838
305078.125000,781,0x00001F,951244,0.544306,1242199,0.710792,949896,0.543535,468138,0.267871
305468.750000,782,0x00001F,950936,0.544130,1241922,0.710634,949805,0.543483,468034,0.267811
305859.375000,783,0x00001F,951060,0.544201,1241984,0.710669,949594,0.543362,468118,0.267859
306250.000000,784,0x00001F,950955,0.544141,1242141,0.710759,950125,0.543666,468264,0.267943
306640.625000,785,0x00001F,950766,0.544033,1241948,0.710648,950025,0.543609,468248,0.267934
307031.250000,786,0x00001F,951217,0.544291,1242225,0.710807,949929,0.543554,468260,0.267941
307421.875000,787,0x00001F,950845,0.544078,1242270,0.710833,949907,0.543541,468169,0.267888
307812.500000,788,0x00001F,950933,0.544128,1242163,0.710771,949862,0.543515,468353,0.267994
308203.125000,789,0x00001F,950737,0.544016,1242144,0.710761,950003,0.543596,468299,0.267963
308593.750000,790,0x00001F,950901,0.544110,1242039,0.710700,949904,0.543539,468272,0.267947
308984.375000,791,0x00001F,950920,0.544121,1242013,0.710686,950053,0.543625,468366,0.268001
309375.000000,792,0x00001F,950899,0.544109,1242051,0.710707,949832,0.543498,468363,0.267999
309765.625000,793,0x00001F,950867,0.544091,1241766,0.710544,949872,0.543521,468050,0.267820
310156.250000,794,0x00001F,951047,0.544194,1241931,0.710639,949874,0.543522,468486,0.268070
310546.875000,795,0x00001F,950880,0.544098,1241999,0.710678,949907,0.543541,468179,0.267894
310937.500000,796,0x00001F,951177,0.544268,1242176,0.710779,949734,0.543442,468196,0.267904
311328.125000,797,0x00001F,951162,0.544259,1242169,0.710775,949676,0.543409,468098,0.267848
311718.750000,798,0x00001F,950899,0.544109,1242063,0.710714,950000,0.543594,468574,0.268120
312109.375000,799,0x00001F,950752,0.544025,1242211,0.710799,949949,0.543565,468247,0.267933
312500.000000,800,0x00001F,950817,0.544062,1242033,0.710697,950061,0.543629,468308,0.267968
312890.625000,801,0x00001F,950827,0.544068,1242179,0.710781,949990,0.543589,468335,0.267983
313281.250000,802,0x00001F,951089,0.544218,1242060,0.710712,950190,0.543703,468241,0.267930
313671.875000,803,0x00001F,950692,0.543990,1242101,0.710736,949764,0.543459,468249,0.267934
314062.500000,804,0x00001F,951185,0.544272,1242181,0.710782,949820,0.543491,468118,0.267859
314453.125000,805,0x00001F,951106,0.544227,1242255,0.710824,949642,0.543390,468011,0.267798
314843.750000,806,0x00001F,950992,0.544162,1242001,0.710679,950003,0.543596,468020,0.267803
315234.375000,807,0x00001F,951085,0.544215,1241831,0.710581,949860,0.543514,468113,0.267856
315625.000000,808,0x00001F,950818,0.544062,1242240,0.710815,950146,0.543678,468085,0.267840
316015.625000,809,0x00001F,950914,0.544117,1241917,0.710631,950032,0.543613,468090,0.267843
316406.250000,810,0x00001F,950941,0.544133,1241970,0.710661,950143,0.543676,468437,0.268042
316796.875000,811,0x00001F,950887,0.544102,1242068,0.710717,950059,0.543628,468477,0.268065
317187.500000,812,0x00001F,951080,0.544212,1242271,0.710833,949898,0.543536,468423,0.268034
317578.125000,813,0x00001F,950836,0.544073,1242143,0.710760,949783,0.543470,468144,0.267874
317968.750000,814,0x00001F,951071,0.544207,1242072,0.710719,949914,0.543545,468125,0.267863
318359.375000,815,0x00001F,950884,0.544100,1242292,0.710845,950077,0.543638,468293,0.267959
318750.000000,816,0x00001F,950989,0.544160,1242030,0.710695,949918,0.543547,468443,0.268045
319140.625000,817,0x00001F,951003,0.544168,1242101,0.710736,949569,0.543348,468133,0.267868
319531.250000,818,0x00001F,950956,0.544141,1242033,0.710697,949702,0.543424,468314,0.267971
319921.875000,819,0x00001F,950962,0.544145,1242208,0.710797,949791,0.543475,468247,0.267933
320312.500000,820,0x00001F,951247,0.544308,1242054,0.710709,949722,0.543435,467915,0.267743
320703.125000,821,0x00001F,951037,0.544188,1242099,0.710735,949856,0.543512,468242,0.267930
321093.750000,822,0x00001F,951012,0.544173,1242248,0.710820,949767,0.543461,468078,0.267836
321484.375000,823,0x00001F,950902,0.544111,1242297,0.710848,949658,0.543399,468220,0.267918
321875.000000,824,0x00001F,950846,0.544078,1242015,0.710687,949934,0.543557,468072,0.267833
322265.625000,825,0x00001F,951142,0.544248,1242145,0.710761,950016,0.543604,468092,0.267844
322656.250000,826,0x00001F,951152,0.544254,1242078,0.710723,949916,0.543546,468280,0.267952
323046.875000,827,0x00001F,950918,0.544120,1242066,0.710716,950066,0.543632,468346,0.267990
323437.500000,828,0x00001F,950960,0.544144,1242228,0.710809,949765,0.543460,468287,0.267956
323828.125000,829,0x00001F,950908,0.544114,1242044,0.710703,949717,0.543432,468360,0.267998
324218.750000,830,0x00001F,950763,0.544031,1242026,0.710693,950027,0.543610,468212,0.267913
324609.375000,831,0x00001F,950804,0.544054,1242024,0.710692,949870,0.543520,468104,0.267851
325000.000000,832,0x00001F,950851,0.544081,1242105,0.710738,949901,0.543538,468283,0.267954
325390.625000,833,0x00001F,950909,0.544115,1242035,0.710698,949909,0.543542,468333,0.267982
325781.250000,834,0x00001F,950988,0.544160,1242097,0.710734,950075,0.543637,468244,0.267931
326171.875000,835,0x00001F,950873,0.544094,1242050,0.710707,949919,0.543548,468112,0.267856
326562.500000,836,0x00001F,950772,0.544036,1241904,0.710623,950022,0.543607,468074,0.267834
326953.125000,837,0x00001F,951022,0.544179,1242180,0.710781,949640,0.543388,468230,0.267923
327343.750000,838,0x00001F,951027,0.544182,1241881,0.710610,949920,0.543549,468158,0.267882
327734.375000,839,0x00001F,950959,0.544143,1242124,0.710749,950020,0.543606,468394,0.268017
328125.000000,840,0x00001F,950842,0.544076,1242168,0.710774,949586,0.543357,468152,0.267879
328515.625000,841,0x00001F,951026,0.544181,1242110,0.710741,949863,0.543516,468659,0.268169
328906.250000,842,0x00001F,950827,0.544068,1242010,0.710684,949984,0.543585,467964,0.267771
329296.875000,843,0x00001F,950578,0.543925,1242073,0.710720,949764,0.543459,468463,0.268057
329687.500000,844,0x00001F,950885,0.544101,1242082,0.710725,949793,0.543476,468069,0.267831
330078.125000,845,0x00001F,950876,0.544096,1242002,0.710679,949856,0.543512,468068,0.267831
330468.750000,846,0x00001F,951053,0.544197,1242087,0.710728,949819,0.543491,468388,0.268014
330859.375000,847,0x00001F,950768,0.544034,1241861,0.710599,949708,0.543427,468251,0.267935
331250.000000,848,0x00001F,950761,0.544030,1241974,0.710663,949712,0.543430,468169,0.267888
331640.625000,849,0x00001F,950676,0.543981,1242154,0.710766,949673,0.543407,468127,0.267864
332031.250000,850,0x00001F,950644,0.543963,1241934,0.710640,949887,0.543530,468302,0.267965
332421.875000,851,0x00001F,951129,0.544240,1242278,0.710837,949962,0.543573,468316,0.267973
332812.500000,852,0x00001F,951093,0.544220,1242099,0.710735,949663,0.543402,468137,0.267870
333203.125000,853,0x00001F,951223,0.544294,1242324,0.710864,949593,0.543361,468045,0.267817
333593.750000,854,0x00001F,950913,0.544117,1242099,0.710735,949919,0.543548,468231,0.267924
333984.375000,855,0x00001F,951044,0.544192,1242048,0.710706,949938,0.543559,468297,0.267962
334375.000000,856,0x00001F,951100,0.544224,1242300,0.710850,949946,0.543563,468226,0.267921
334765.625000,857,0x00001F,951043,0.544191,1241944,0.710646,949780,0.543468,468231,0.267924
335156.250000,858,0x00001F,950942,0.544133,1241987,0.710671,949824,0.543494,468406,0.268024
335546.875000,859,0x00001F,950837,0.544073,1242363,0.710886,950066,0.543632,468362,0.267999
335937.500000,860,0x00001F,950685,0.543986,1242038,0.710700,949589,0.543359,468014,0.267800
336328.125000,861,0x00001F,950957,0.544142,1242085,0.710727,949869,0.543519,468198,0.267905
336718.750000,862,0x00001F,950921,0.544121,1241895,0.710618,949718,0.543433,468368,0.268002
337109.375000,863,0x00001F,950995,0.544164,1241919,0.710632,949732,0.543441,468296,0.267961
337500.000000,864,0x00001F,951017,0.544176,1241882,0.710611,950091,0.543646,468304,0.267966
337890.625000,865,0x00001F,950932,0.544128,1242252,0.710822,949877,0.543524,468079,0.267837
338281.250000,866,0x00001F,950858,0.544085,1242023,0.710691,950163,0.543688,468205,0.267909
338671.875000,867,0x00001F,951016,0.544176,1242370,0.710890,949976,0.543581,468082,0.267839
339062.500000,868,0x00001F,950665,0.543975,1241996,0.710676,950018,0.543605,468184,0.267897
339453.125000,869,0x00001F,950875,0.544095,1242258,0.710826,949980,0.543583,468233,0.267925
339843.750000,870,0x00001F,950839,0.544074,1242244,0.710818,950212,0.543716,468340,0.267986
340234.375000,871,0x00001F,951006,0.544170,1241999,0.710678,950188,0.543702,468288,0.267957
340625.000000,872,0x00001F,950844,0.544077,1242079,0.710723,950008,0.543599,468128,0.267865
341015.625000,873,0x00001F,950791,0.544047,1241921,0.710633,949918,0.543547,468132,0.267867
341406.250000,874,0x00001F,950979,0.544155,1242393,0.710903,949945,0.543563,468388,0.268014
341796.875000,875,0x00001F,950952,0.544139,1242029,0.710695,949979,0.543582,467978,0.267779
342187.500000,876,0x00001F,950903,0.544111,1242061,0.710713,949874,0.543522,468258,0.267939
342578.125000,877,0x00001F,951022,0.544179,1242321,0.710862,949472,0.543292,467831,0.267695
342968.750000,878,0x00001F,950920,0.544121,1242128,0.710751,949971,0.543578,468224,0.267920
343359.375000,879,0x00001F,950867,0.544091,1241896,0.710619,949879,0.543525,468245,0.267932
343750.000000,880,0x00001F,950994,0.544163,1241948,0.710648,949843,0.543505,468265,0.267943
344140.625000,881,0x00001F,950774,0.544037,1242106,0.710739,949842,0.543504,468175,0.267892
344531.250000,882,0x00001F,951200,0.544281,1241860,0.710598,949877,0.543524,468086,0.267841
344921.875000,883,0x00001F,951032,0.544185,1241916,0.710630,950031,0.543612,468191,0.267901
345312.500000,884,0x00001F,950572,0.543922,1241989,0.710672,949845,0.543506,468213,0.267914
345703.125000,885,0x00001F,951018,0.544177,1242180,0.710781,949832,0.543498,468313,0.267971
346093.750000,886,0x00001F,950793,0.544048,1242128,0.710751,949863,0.543516,468096,0.267847
346484.375000,887,0x00001F,951275,0.544324,1242338,0.710872,949720,0.543434,468175,0.267892
346875.000000,888,0x00001F,950990,0.544161,1241993,0.710674,949764,0.543459,468170,0.267889
347265.625000,889,0x00001F,950687,0.543988,1242065,0.710715,950057,0.543627,467940,0.267757
347656.250000,890,0x00001F,950807,0.544056,1242047,0.710705,949782,0.543470,468138,0.267871
348046.875000,891,0x00001F,950589,0.543931,1241743,0.710531,950154,0.543683,468038,0.267814
348437.500000,892,0x00001F,950774,0.544037,1242169,0.710775,949851,0.543509,468457,0.268053
348828.125000,893,0x00001F,950988,0.544160,1242441,0.710930,949754,0.543454,468056,0.267824
349218.750000,894,0x00001F,951078,0.544211,1242026,0.710693,949961,0.543572,468062,0.267827
349609.375000,895,0x00001F,950908,0.544114,1242102,0.710737,949917,0.543547,467991,0.267787
350000.000000,896,0x00001F,950904,0.544112,1242170,0.710775,949843,0.543505,468162,0.267884
350390.625000,897,0x00001F,950843,0.544077,1241828,0.710580,949923,0.543550,468285,0.267955
350781.250000,898,0x00001F,950830,0.544069,1242233,0.710811,949909,0.543542,467997,0.267790
351171.875000,899,0x00001F,951036,0.544187,1241993,0.710674,949797,0.543478,468219,0.267917
351562.500000,900,0x00001F,950658,0.543971,1242036,0.710699,949962,0.543573,468232,0.267925
351953.125000,901,0x00001F,951125,0.544238,1242080,0.710724,949886,0.543529,468071,0.267832
352343.750000,902,0x00001F,950840,0.544075,1242022,0.710691,949824,0.543494,468206,0.267910
352734.375000,903,0x00001F,950912,0.544116,1242083,0.710726,950141,0.543675,468187,0.267899
353125.000000,904,0x00001F,950916,0.544119,1242064,0.710715,949593,0.543361,468284,0.267954
353515.625000,905,0x00001F,951031,0.544184,1241842,0.710588,949803,0.543482,468238,0.267928
353906.250000,906,0x00001F,950808,0.544057,1241736,0.710527,949763,0.543459,468148,0.267876
354296.875000,907,0x00001F,950897,0.544108,1241946,0.710647,949653,0.543396,468373,0.268005
354687.500000,908,0x00001F,950576,0.543924,1242052,0.710708,949918,0.543547,468239,0.267929
355078.125000,909,0x00001F,950662,0.543973,1241912,0.710628,949848,0.543507,468397,0.268019
355468.750000,910,0x00001F,950778,0.544040,1242088,0.710728,949847,0.543507,468326,0.267978
355859.375000,911,0x00001F,950627,0.543953,1241922,0.710634,949821,0.543492,468309,0.267969
356250.000000,912,0x00001F,950778,0.544040,1242167,0.710774,949679,0.543411,468188,0.267899
356640.625000,913,0x00001F,950759,0.544029,1241934,0.710640,949786,0.543472,468146,0.267875
357031.250000,914,0x00001F,950934,0.544129,1242175,0.710778,949997,0.543593,467980,0.267780
357421.875000,915,0x00001F,950701,0.543995,1242185,0.710784,950108,0.543656,468434,0.268040
357812.500000,916,0x00001F,950992,0.544162,1242275,0.710835,950072,0.543636,468400,0.268021
358203.125000,917,0x00001F,951169,0.544263,1242161,0.710770,949805,0.543483,468493,0.268074
358593.750000,918,0x00001F,951105,0.544227,1241941,0.710644,950403,0.543825,468288,0.267957
358984.375000,919,0x00001F,951108,0.544228,1242172,0.710777,949926,0.543552,468531,0.268096
359375.000000,920,0x00001F,950692,0.543990,1242030,0.710695,949862,0.543515,468298,0.267962
359765.625000,921,0x00001F,950855,0.544084,1242156,0.710767,950036,0.543615,468323,0.267977
360156.250000,922,0x00001F,950797,0.544050,1241935,0.710641,949963,0.543573,468093,0.267845
360546.875000,923,0x00001F,950788,0.544045,1242199,0.710792,950265,0.543746,468451,0.268050
360937.500000,924,0x00001F,950669,0.543977,1242044,0.710703,949915,0.543546,468295,0.267961
361328.125000,925,0x00001F,951057,0.544199,1241940,0.710644,949973,0.543579,468197,0.267904
361718.750000,926,0x00001F,950881,0.544098,1242123,0.710748,949851,0.543509,468109,0.267854
362109.375000,927,0x00001F,950979,0.544155,1242093,0.710731,949665,0.543403,468493,0.268074
362500.000000,928,0x00001F,951088,0.544217,1242039,0.710700,949753,0.543453,468108,0.267854
362890.625000,929,0x00001F,950690,0.543989,1242174,0.710778,949796,0.543478,468128,0.267865
363281.250000,930,0x00001F,951234,0.544300,1242128,0.710751,949881,0.543526,468157,0.267882
363671.875000,931,0x00001F,950811,0.544058,1241947,0.710648,950082,0.543641,468120,0.267860
364062.500000,932,0x00001F,950833,0.544071,1242262,0.710828,950038,0.543616,468260,0.267941
364453.125000,933,0x00001F,950945,0.544135,1242005,0.710681,949798,0.543479,468255,0.267938
364843.750000,934,0x00001F,950950,0.544138,1241990,0.710672,949914,0.543545,468226,0.267921
365234.375000,935,0x00001F,951109,0.544229,1242264,0.710829,950050,0.543623,468083,0.267839
365625.000000,936,0x00001F,950947,0.544136,1241831,0.710581,950062,0.543630,468317,0.267973
366015.625000,937,0x00001F,951201,0.544282,1242139,0.710758,949869,0.543519,468161,0.267884
366406.250000,938,0x00001F,951042,0.544191,1242224,0.710806,949957,0.543570,468031,0.267810
366796.875000,939,0x00001F,950939,0.544132,1241969,0.710660,950252,0.543739,468205,0.267909
367187.500000,940,0x00001F,951101,0.544224,1242177,0.710779,949900,0.543537,468433,0.268040
367578.125000,941,0x00001F,951011,0.544173,1242199,0.710792,949832,0.543498,468102,0.267850
367968.750000,942,0x00001F,951135,0.544244,1242244,0.710818,950179,0.543697,468195,0.267903
368359.375000,943,0x00001F,951102,0.544225,1242145,0.710761,949647,0.543392,468149,0.267877
368750.000000,944,0x00001F,950745,0.544021,1242196,0.710790,949985,0.543586,468039,0.267814
369140.625000,945,0x00001F,950881,0.544098,1242054,0.710709,949916,0.543546,468078,0.267836
369531.250000,946,0x00001F,951125,0.544238,1242073,0.710720,949919,0.543548,468332,0.267982
369921.875000,947,0x00001F,950817,0.544062,1241900,0.710621,949892,0.543533,468490,0.268072
370312.500000,948,0x00001F,950803,0.544054,1242218,0.710803,949874,0.543522,468137,0.267870
370703.125000,949,0x00001F,950965,0.544147,1242216,0.710802,949902,0.543538,468353,0.267994
371093.750000,950,0x00001F,951128,0.544240,1242081,0.710724,950082,0.543641,468443,0.268045
371484.375000,951,0x00001F,951059,0.544200,1242342,0.710874,950067,0.543633,468100,0.267849
371875.000000,952,0x00001F,950726,0.544010,1241955,0.710652,949993,0.543590,468348,0.267991
372265.625000,953,0x00001F,950604,0.543940,1242103,0.710737,949793,0.543476,468234,0.267926
372656.250000,954,0x00001F,950864,0.544089,1242100,0.710735,949725,0.543437,468074,0.267834
373046.875000,955,0x00001F,950871,0.544093,1242193,0.710789,949967,0.543576,468472,0.268062
373437.500000,956,0x00001F,951098,0.544223,1241990,0.710672,949767,0.543461,468604,0.268137
373828.125000,957,0x00001F,951042,0.544191,1241915,0.710629,950107,0.543656,468136,0.267870
374218.750000,958,0x00001F,950719,0.544006,1242006,0.710682,949974,0.543580,468557,0.268110
374609.375000,959,0x00001F,950611,0.543944,1241977,0.710665,949965,0.543574,468269,0.267946
375000.000000,960,0x00001F,950854,0.544083,1242313,0.710857,950177,0.543696,468220,0.267918
375390.625000,961,0x00001F,951150,0.544252,1242154,0.710766,949561,0.543343,468333,0.267982
375781.250000,962,0x00001F,950753,0.544025,1242136,0.710756,949812,0.543487,468282,0.267953
376171.875000,963,0x00001F,950848,0.544080,1241804,0.710566,949709,0.543428,468057,0.267824
376562.500000,964,0x00001F,950930,0.544127,1242207,0.710797,949619,0.543376,468140,0.267872
376953.125000,965,0x00001F,951084,0.544215,1242333,0.710869,950136,0.543672,468128,0.267865
377343.750000,966,0x00001F,951036,0.544187,1242039,0.710700,949913,0.543545,468298,0.267962
377734.375000,967,0x00001F,950913,0.544117,1241927,0.710636,949933,0.543556,468463,0.268057
378125.000000,968,0x00001F,951049,0.544195,1241929,0.710638,950214,0.543717,468278,0.267951
378515.625000,969,0x00001F,950988,0.544160,1242174,0.710778,949881,0.543526,468364,0.268000
378906.250000,970,0x00001F,950582,0.543927,1241755,0.710538,949807,0.543484,468167,0.267887
379296.875000,971,0x00001F,950852,0.544082,1242003,0.710680,949881,0.543526,468199,0.267906
379687.500000,972,0x00001F,950924,0.544123,1242003,0.710680,949978,0.543582,468237,0.267927
380078.125000,973,0x00001F,951095,0.544221,1242172,0.710777,949868,0.543519,468306,0.267967
380468.750000,974,0x00001F,951125,0.544238,1242206,0.710796,949602,0.543367,468334,0.267983
380859.375000,975,0x00001F,950722,0.544008,1242394,0.710904,949970,0.543577,468239,0.267929
381250.000000,976,0x00001F,950704,0.543997,1241996,0.710676,949885,0.543529,468229,0.267923
381640.625000,977,0x00001F,950639,0.543960,1241968,0.710660,949990,0.543589,468392,0.268016
382031.250000,978,0x00001F,951051,0.544196,1242352,0.710880,949858,0.543513,468170,0.267889
382421.875000,979,0x00001F,951021,0.544179,1242089,0.710729,949832,0.543498,468404,0.268023
382812.500000,980,0x00001F,950762,0.544030,1241793,0.710560,949556,0.543340,468280,0.267952
383203.125000,981,0x00001F,950916,0.544119,1241854,0.710595,949928,0.543553,468042,0.267816
383593.750000,982,0x00001F,950904,0.544112,1241932,0.710639,950127,0.543667,468378,0.268008
383984.375000,983,0x00001F,950904,0.544112,1242233,0.710811,950014,0.543602,468392,0.268016
384375.000000,984,0x00001F,950707,0.543999,1242081,0.710724,949744,0.543448,468130,0.267866
384765.625000,985,0x00001F,950957,0.544142,1242208,0.710797,949860,0.543514,468206,0.267910
385156.250000,986,0x00001F,950780,0.544041,1242047,0.710705,949818,0.543490,468093,0.267845
385546.875000,987,0x00001F,950804,0.544054,1241900,0.710621,949627,0.543381,468379,0.268009
385937.500000,988,0x00001F,950651,0.543967,1242098,0.710734,949793,0.543476,468027,0.267807
386328.125000,989,0x00001F,950969,0.544149,1242078,0.710723,949956,0.543569,468250,0.267935
386718.750000,990,0x00001F,951029,0.544183,1241830,0.710581,949997,0.543593,468058,0.267825
387109.375000,991,0x00001F,950911,0.544116,1242190,0.710787,949791,0.543475,468192,0.267902
387500.000000,992,0x00001F,950785,0.544044,1241982,0.710668,949975,0.543580,468231,0.267924
387890.625000,993,0x00001F,950809,0.544057,1242067,0.710716,949908,0.543542,468200,0.267906
388281.250000,994,0x00001F,950877,0.544096,1242041,0.710702,949936,0.543558,468222,0.267919
388671.875000,995,0x00001F,950812,0.544059,1242056,0.710710,950128,0.543668,468289,0.267957
389062.500000,996,0x00001F,950862,0.544088,1241943,0.710645,949912,0.543544,468365,0.268001
389453.125000,997,0x00001F,950954,0.544140,1242002,0.710679,949860,0.543514,468051,0.267821
389843.750000,998,0x00001F,951040,0.544189,1241963,0.710657,949721,0.543435,468020,0.267803
390234.375000,999,0x00001F,951187,0.544274,1242285,0.710841,949739,0.543445,468087,0.267842
390625.000000,1000,0x00001F,950866,0.544090,1241978,0.710666,950061,0.543629,468527,0.268093
391015.625000,1001,0x00001F,950873,0.544094,1242009,0.710683,949962,0.543573,468068,0.267831
391406.250000,1002,0x00001F,951049,0.544195,1242203,0.710794,949687,0.543415,468274,0.267949
391796.875000,1003,0x00001F,950851,0.544081,1242194,0.710789,950131,0.543669,468066,0.267830
392187.500000,1004,0x00001F,950845,0.544078,1241990,0.710672,949883,0.543527,468321,0.267975
392578.125000,1005,0x00001F,950995,0.544164,1242423,0.710920,949760,0.543457,468172,0.267890
392968.750000,1006,0x00001F,951087,0.544216,1242147,0.710762,949870,0.543520,467946,0.267761
393359.375000,1007,0x00001F,950808,0.544057,1241911,0.710627,949977,0.543581,468026,0.267807
393750.000000,1008,0x00001F,950943,0.544134,1242069,0.710718,950075,0.543637,468334,0.267983
394140.625000,1009,0x00001F,951042,0.544191,1241926,0.710636,950175,0.543694,468270,0.267946
394531.250000,1010,0x00001F,950910,0.544115,1242033,0.710697,949894,0.543534,468164,0.267886
394921.875000,1011,0x00001F,950828,0.544068,1241975,0.710664,950110,0.543657,468309,0.267969
395312.500000,1012,0x00001F,950663,0.543974,1241919,0.710632,949745,0.543448,468236,0.267927
395703.125000,1013,0x00001F,950729,0.544012,1242365,0.710887,949923,0.543550,468402,0.268022
396093.750000,1014,0x00001F,951021,0.544179,1241847,0.710591,949891,0.543532,468134,0.267868
396484.375000,1015,0x00001F,951332,0.544357,1242017,0.710688,949860,0.543514,468208,0.267911
396875.000000,1016,0x00001F,951021,0.544179,1242177,0.710779,950038,0.543616,468301,0.267964
397265.625000,1017,0x00001F,950852,0.544082,1242269,0.710832,949802,0.543481,468133,0.267868
397656.250000,1018,0x00001F,951105,0.544227,1242249,0.710821,949877,0.543524,468230,0.267923
398046.875000,1019,0x00001F,950927,0.544125,1241769,0.710546,949754,0.543454,468043,0.267816
398437.500000,1020,0x00001F,950991,0.544161,1242053,0.710708,950048,0.543622,468120,0.267860
398828.125000,1021,0x00001F,950742,0.544019,1242408,0.710912,949942,0.543561,468250,0.267935
399218.750000,1022,0x00001F,950719,0.544006,1241933,0.710640,950266,0.543747,468478,0.268065
399609.375000,1023,0x00001F,951032,0.544185,1241827,0.710579,949873,0.543522,468288,0.267957
400000.000000,1024,0x00001F,951297,0.544337,1242134,0.710755,949848,0.543507,468405,0.268023
400390.625000,1025,0x00001F,950962,0.544145,1241923,0.710634,949864,0.543517,468179,0.267894
400781.250000,1026,0x00001F,950867,0.544091,1242037,0.710699,949967,0.543576,468208,0.267911
401171.875000,1027,0x00001F,950998,0.544165,1242148,0.710763,949815,0.543489,468068,0.267831
401562.500000,1028,0x00001F,950729,0.544012,1241805,0.710567,950073,0.543636,468274,0.267949
401953.125000,1029,0x00001F,950553,0.543911,1242013,0.710686,949856,0.543512,468244,0.267931
402343.750000,1030,0x00001F,950901,0.544110,1242127,0.710751,950028,0.543610,468620,0.268147
402734.375000,1031,0x00001F,950939,0.544132,1242184,0.710783,949766,0.543460,468405,0.268023
403125.000000,1032,0x00001F,950758,0.544028,1241807,0.710568,949818,0.543490,468080,0.267838
403515.625000,1033,0x00001F,950754,0.544026,1242045,0.710704,949767,0.543461,468018,0.267802
403906.250000,1034,0x00001F,950959,0.544143,1242106,0.710739,949570,0.543348,468130,0.267866
404296.875000,1035,0x00001F,950876,0.544096,1242185,0.710784,949648,0.543393,468318,0.267974
404687.500000,1036,0x00001F,950940,0.544132,1242015,0.710687,949884,0.543528,468256,0.267938
405078.125000,1037,0x00001F,951026,0.544181,1242069,0.710718,949914,0.543545,468097,0.267847
405468.750000,1038,0x00001F,950982,0.544156,1241792,0.710559,949905,0.543540,468424,0.268034
405859.375000,1039,0x00001F,951107,0.544228,1242283,0.710840,949719,0.543434,468071,0.267832
406250.000000,1040,0x00001F,950953,0.544140,1241974,0.710663,949867,0.543518,467976,0.267778
406640.625000,1041,0x00001F,950976,0.544153,1242140,0.710758,950007,0.543598,468139,0.267871
407031.250000,1042,0x00001F,950974,0.544152,1242430,0.710924,949970,0.543577,468196,0.267904
407421.875000,1043,0x00001F,950862,0.544088,1241961,0.710656,949706,0.543426,468308,0.267968
407812.500000,1044,0x00001F,950831,0.544070,1242182,0.710782,949970,0.543577,468165,0.267886
408203.125000,1045,0x00001F,950873,0.544094,1242091,0.710730,949897,0.543535,468052,0.267822
408593.750000,1046,0x00001F,950968,0.544148,1242463,0.710943,949929,0.543554,468060,0.267826
408984.375000,1047,0x00001F,950922,0.544122,1241958,0.710654,949692,0.543418,468337,0.267985
409375.000000,1048,0x00001F,951097,0.544222,1241845,0.710589,950263,0.543745,468505,0.268081
409765.625000,1049,0x00001F,950755,0.544026,1242144,0.710761,949992,0.543590,468255,0.267938
410156.250000,1050,0x00001F,950864,0.544089,1242040,0.710701,949795,0.543477,468214,0.267914
410546.875000,1051,0x00001F,950777,0.544039,1242015,0.710687,949734,0.543442,467958,0.267768
410937.500000,1052,0x00001F,951230,0.544298,1242097,0.710734,949602,0.543367,468105,0.267852
411328.125000,1053,0x00001F,950881,0.544098,1242168,0.710774,950055,0.543626,468379,0.268009
411718.750000,1054,0x00001F,950838,0.544074,1241796,0.710561,949365,0.543231,468138,0.267871
412109.375000,1055,0x00001F,950667,0.543976,1242264,0.710829,949755,0.543454,468370,0.268003
412500.000000,1056,0x00001F,950989,0.544160,1242165,0.710773,949837,0.543501,467980,0.267780
412890.625000,1057,0x00001F,950682,0.543985,1242038,0.710700,949841,0.543503,468270,0.267946
413281.250000,1058,0x00001F,950970,0.544149,1242168,0.710774,949717,0.543432,468249,0.267934
413671.875000,1059,0x00001F,950667,0.543976,1241977,0.710665,949479,0.543296,468060,0.267826
414062.500000,1060,0x00001F,951066,0.544204,1242272,0.710834,949948,0.543565,468421,0.268033
414453.125000,1061,0x00001F,951035,0.544187,1241965,0.710658,949844,0.543505,468218,0.267917
414843.750000,1062,0x00001F,950726,0.544010,1241943,0.710645,950020,0.543606,468493,0.268074
415234.375000,1063,0x00001F,950936,0.544130,1242185,0.710784,950042,0.543618,468365,0.268001
415625.000000,1064,0x00001F,950759,0.544029,1242123,0.710748,949706,0.543426,468409,0.268026
416015.625000,1065,0x00001F,950882,0.544099,1241983,0.710668,950035,0.543614,468317,0.267973
416406.250000,1066,0x00001F,950892,0.544105,1242069,0.710718,949833,0.543499,468215,0.267915
416796.875000,1067,0x00001F,950822,0.544065,1241842,0.710588,949902,0.543538,468298,0.267962
417187.500000,1068,0x00001F,950917,0.544119,1242276,0.710836,949655,0.543397,468313,0.267971
417578.125000,1069,0x00001F,950930,0.544127,1241864,0.710600,949968,0.543576,468458,0.268054
417968.750000,1070,0x00001F,950985,0.544158,1242053,0.710708,950026,0.543609,468589,0.268129
418359.375000,1071,0x00001F,950996,0.544164,1241944,0.710646,949887,0.543530,468365,0.268001
418750.000000,1072,0x00001F,950915,0.544118,1241875,0.710607,949812,0.543487,468369,0.268003
419140.625000,1073,0x00001F,950866,0.544090,1242005,0.710681,950000,0.543594,467945,0.267760
419531.250000,1074,0x00001F,950944,0.544135,1242184,0.710783,950080,0.543640,468424,0.268034
419921.875000,1075,0x00001F,950852,0.544082,1242041,0.710702,949777,0.543467,468097,0.267847
420312.500000,1076,0x00001F,950952,0.544139,1241976,0.710664,950035,0.543614,468098,0.267848
420703.125000,1077,0x00001F,951137,0.544245,1241905,0.710624,949875,0.543523,468231,0.267924
421093.750000,1078,0x00001F,950858,0.544085,1241977,0.710665,949916,0.543546,468216,0.267915
421484.375000,1079,0x00001F,951030,0.544184,1242065,0.710715,950219,0.543720,468436,0.268041
421875.000000,1080,0x00001F,950973,0.544151,1242097,0.710734,949910,0.543543,468134,0.267868
422265.625000,1081,0x00001F,951056,0.544199,1242161,0.710770,949839,0.543502,468191,0.267901
422656.250000,1082,0x00001F,950951,0.544139,1241843,0.710588,949958,0.543570,468212,0.267913
423046.875000,1083,0x00001F,950870,0.544092,1242062,0.710714,949793,0.543476,468228,0.267922
423437.500000,1084,0x00001F,950844,0.544077,1242252,0.710822,949848,0.543507,468503,0.268080
423828.125000,1085,0x00001F,951020,0.544178,1242161,0.710770,949737,0.543444,468334,0.267983
424218.750000,1086,0x00001F,951033,0.544185,1242053,0.710708,949900,0.543537,468094,0.267846
424609.375000,1087,0x00001F,951126,0.544239,1242041,0.710702,949842,0.543504,468180,0.267895
425000.000000,1088,0x00001F,951026,0.544181,1242039,0.710700,949762,0.543458,468033,0.267811
425390.625000,1089,0x00001F,950901,0.544110,1242007,0.710682,949955,0.543569,468108,0.267854
425781.250000,1090,0x00001F,950781,0.544041,1242075,0.710721,949651,0.543395,468300,0.267963
426171.875000,1091,0x00001F,950931,0.544127,1241941,0.710644,949602,0.543367,468183,0.267896
426562.500000,1092,0x00001F,951034,0.544186,1242029,0.710695,949723,0.543436,468217,0.267916
426953.125000,1093,0x00001F,950596,0.543935,1241969,0.710660,949892,0.543533,467979,0.267780
427343.750000,1094,0x00001F,950990,0.544161,1242123,0.710748,949872,0.543521,468155,0.267880
427734.375000,1095,0x00001F,950847,0.544079,1242099,0.710735,950233,0.543728,468126,0.267864
428125.000000,1096,0x00001F,950672,0.543979,1242070,0.710718,949806,0.543483,468265,0.267943
428515.625000,1097,0x00001F,950823,0.544065,1241901,0.710621,949892,0.543533,468286,0.267955
428906.250000,1098,0x00001F,950925,0.544124,1242217,0.710802,949731,0.543440,468210,0.267912
429296.875000,1099,0x00001F,950672,0.543979,1242072,0.710719,949927,0.543553,468427,0.268036
429687.500000,1100,0x00001F,950907,0.544113,1242293,0.710846,949996,0.543592,468180,0.267895
430078.125000,1101,0x00001F,951109,0.544229,1242285,0.710841,950002,0.543596,468078,0.267836
430468.750000,1102,0x00001F,950659,0.543971,1241985,0.710670,949796,0.543478,468146,0.267875
430859.375000,1103,0x00001F,950747,0.544022,1241876,0.710607,949969,0.543577,468292,0.267959
431250.000000,1104,0x00001F,951123,0.544237,1242167,0.710774,949750,0.543451,468238,0.267928
431640.625000,1105,0x00001F,950874,0.544095,1241915,0.710629,949820,0.543491,468305,0.267966
432031.250000,1106,0x00001F,950978,0.544154,1241993,0.710674,950065,0.543632,468624,0.268149
432421.875000,1107,0x00001F,950702,0.543996,1242094,0.710732,949930,0.543554,468225,0.267920
432812.500000,1108,0x00001F,951022,0.544179,1241812,0.710571,949923,0.543550,468286,0.267955
433203.125000,1109,0x00001F,950992,0.544162,1242090,0.710730,949928,0.543553,468193,0.267902
433593.750000,1110,0x00001F,950783,0.544042,1242024,0.710692,949881,0.543526,468184,0.267897
433984.375000,1111,0x00001F,951124,0.544238,1242074,0.710720,949889,0.543531,468197,0.267904
434375.000000,1112,0x00001F,950721,0.544007,1241813,0.710571,949854,0.543511,468029,0.267808
434765.625000,1113,0x00001F,951065,0.544204,1242101,0.710736,950018,0.543605,468123,0.267862
435156.250000,1114,0x00001F,951385,0.544387,1242181,0.710782,949756,0.543455,468222,0.267919
435546.875000,1115,0x00001F,950949,0.544137,1242248,0.710820,949950,0.543566,467942,0.267759
435937.500000,1116,0x00001F,951088,0.544217,1242114,0.710743,949975,0.543580,468257,0.267939
436328.125000,1117,0x00001F,951001,0.544167,1241861,0.710599,949971,0.543578,468061,0.267827
436718.750000,1118,0x00001F,951091,0.544219,1242160,0.710770,949917,0.543547,468395,0.268018
437109.375000,1119,0x00001F,951117,0.544234,1242051,0.710707,949683,0.543413,468282,0.267953
437500.000000,1120,0x00001F,950649,0.543966,1241907,0.710625,950050,0.543623,468436,0.268041
437890.625000,1121,0x00001F,950868,0.544091,1242196,0.710790,949979,0.543582,468122,0.267862
438281.250000,1122,0x00001F,950999,0.544166,1242053,0.710708,950233,0.543728,468364,0.268000
438671.875000,1123,0x00001F,950836,0.544073,1242141,0.710759,949780,0.543468,468338,0.267985
439062.500000,1124,0x00001F,950858,0.544085,1242269,0.710832,950030,0.543612,468302,0.267965
439453.125000,1125,0x00001F,951081,0.544213,1242006,0.710682,949883,0.543527,468010,0.267797
439843.750000,1126,0x00001F,950786,0.544044,1241898,0.710620,949796,0.543478,468074,0.267834
440234.375000,1127,0x00001F,951018,0.544177,1242172,0.710777,949961,0.543572,468440,0.268044
440625.000000,1128,0x00001F,950974,0.544152,1242017,0.710688,949819,0.543491,468185,0.267898
441015.625000,1129,0x00001F,950974,0.544152,1242134,0.710755,949791,0.543475,468354,0.267994
441406.250000,1130,0x00001F,950809,0.544057,1241949,0.710649,949724,0.543436,468278,0.267951
441796.875000,1131,0x00001F,950683,0.543985,1242197,0.710791,950012,0.543601,468027,0.267807
442187.500000,1132,0x00001F,950815,0.544061,1242022,0.710691,949977,0.543581,468227,0.267922
442578.125000,1133,0x00001F,950940,0.544132,1242203,0.710794,949854,0.543511,467649,0.267591
442968.750000,1134,0x00001F,951180,0.544270,1241943,0.710645,950142,0.543676,468009,0.267797
443359.375000,1135,0x00001F,950627,0.543953,1242164,0.710772,950185,0.543700,468162,0.267884
443750.000000,1136,0x00001F,950846,0.544078,1242207,0.710797,949803,0.543482,468235,0.267926
444140.625000,1137,0x00001F,950916,0.544119,1242040,0.710701,949820,0.543491,468226,0.267921
444531.250000,1138,0x00001F,951000,0.544167,1241903,0.710623,949851,0.543509,467968,0.267773
444921.875000,1139,0x00001F,950545,0.543906,1242314,0.710858,949854,0.543511,468493,0.268074
445312.500000,1140,0x00001F,950918,0.544120,1241810,0.710569,949988,0.543588,468276,0.267950
445703.125000,1141,0x00001F,950940,0.544132,1242077,0.710722,949659,0.543399,468206,0.267910
446093.750000,1142,0x00001F,950926,0.544124,1241876,0.710607,950031,0.543612,468198,0.267905
446484.375000,1143,0x00001F,950901,0.544110,1241969,0.710660,949699,0.543422,468337,0.267985
446875.000000,1144,0x00001F,950831,0.544070,1242039,0.710700,949960,0.543571,468293,0.267959
447265.625000,1145,0x00001F,950836,0.544073,1242054,0.710709,949833,0.543499,468104,0.267851
447656.250000,1146,0x00001F,951015,0.544175,1242233,0.710811,949949,0.543565,468285,0.267955
448046.875000,1147,0x00001F,950895,0.544106,1241949,0.710649,949917,0.543547,468172,0.267890
448437.500000,1148,0x00001F,950885,0.544101,1241854,0.710595,949657,0.543398,468142,0.267873
448828.125000,1149,0x00001F,951088,0.544217,1242113,0.710743,949897,0.543535,468117,0.267859
449218.750000,1150,0x00001F,950738,0.544017,1241855,0.710595,949795,0.543477,468320,0.267975
449609.375000,1151,0x00001F,950954,0.544140,1241912,0.710628,949932,0.543555,468143,0.267874
450000.000000,1152,0x00001F,951161,0.544259,1241955,0.710652,949355,0.543225,468055,0.267823
450390.625000,1153,0x00001F,951040,0.544189,1242863,0.711172,949789,0.543474,468252,0.267936
450781.250000,1154,0x00001F,950974,0.544152,1241946,0.710647,950064,0.543631,468166,0.267887
451171.875000,1155,0x00001F,950984,0.544157,1242284,0.710841,949938,0.543559,468166,0.267887
451562.500000,1156,0x00001F,951188,0.544274,1242079,0.710723,950085,0.543643,468201,0.267907
451953.125000,1157,0x00001F,950656,0.543970,1242337,0.710871,949987,0.543587,468122,0.267862
452343.750000,1158,0x00001F,950825,0.544066,1242067,0.710716,949493,0.543304,468148,0.267876
452734.375000,1159,0x00001F,951165,0.544261,1241892,0.710616,949785,0.543471,468401,0.268021
453125.000000,1160,0x00001F,950976,0.544153,1242093,0.710731,949713,0.543430,468215,0.267915
453515.625000,1161,0x00001F,951374,0.544381,1242301,0.710850,950144,0.543677,468191,0.267901
453906.250000,1162,0x00001F,951006,0.544170,1241829,0.710580,949824,0.543494,468008,0.267796
454296.875000,1163,0x00001F,950884,0.544100,1242092,0.710731,949545,0.543334,468085,0.267840
454687.500000,1164,0x00001F,951030,0.544184,1241987,0.710671,949947,0.543564,468287,0.267956
455078.125000,1165,0x00001F,950707,0.543999,1242095,0.710732,949847,0.543507,468091,0.267844
455468.750000,1166,0x00001F,950983,0.544157,1242240,0.710815,949918,0.543547,468154,0.267880
455859.375000,1167,0x00001F,951013,0.544174,1242056,0.710710,949833,0.543499,468203,0.267908
456250.000000,1168,0x00001F,951066,0.544204,1242070,0.710718,949896,0.543535,467864,0.267714
456640.625000,1169,0x00001F,950476,0.543867,1241977,0.710665,949908,0.543542,468186,0.267898
457031.250000,1170,0x00001F,951075,0.544209,1242002,0.710679,949954,0.543568,468109,0.267854
457421.875000,1171,0x00001F,951427,0.544411,1242210,0.710798,949633,0.543384,468161,0.267884
457812.500000,1172,0x00001F,950902,0.544111,1242150,0.710764,949889,0.543531,468037,0.267813
458203.125000,1173,0x00001F,950880,0.544098,1241990,0.710672,950038,0.543616,468473,0.268062
458593.750000,1174,0x00001F,950864,0.544089,1241945,0.710647,949619,0.543376,468239,0.267929
458984.375000,1175,0x00001F,951065,0.544204,1242053,0.710708,949717,0.543432,468097,0.267847
459375.000000,1176,0x00001F,950856,0.544084,1242265,0.710830,950097,0.543650,468286,0.267955
459765.625000,1177,0x00001F,950701,0.543995,1242060,0.710712,949718,0.543433,468070,0.267832
460156.250000,1178,0x00001F,951022,0.544179,1242102,0.710737,949895,0.543534,468105,0.267852
460546.875000,1179,0x00001F,950941,0.544133,1241962,0.710656,949977,0.543581,468073,0.267834
460937.500000,1180,0x00001F,951093,0.544220,1241947,0.710648,949902,0.543538,468095,0.267846
461328.125000,1181,0x00001F,950764,0.544032,1242109,0.710741,949740,0.543446,468296,0.267961
461718.750000,1182,0x00001F,951022,0.544179,1242600,0.711021,949967,0.543576,468347,0.267990
462109.375000,1183,0x00001F,950933,0.544128,1241937,0.710642,949758,0.543456,468387,0.268013
462500.000000,1184,0x00001F,950919,0.544120,1242031,0.710696,949853,0.543510,468140,0.267872
462890.625000,1185,0x00001F,950760,0.544029,1241942,0.710645,950042,0.543618,468133,0.267868
463281.250000,1186,0x00001F,950918,0.544120,1242137,0.710757,949985,0.543586,468353,0.267994
463671.875000,1187,0x00001F,951013,0.544174,1242259,0.710826,950064,0.543631,468229,0.267923
464062.500000,1188,0x00001F,950856,0.544084,1241919,0.710632,949946,0.543563,467988,0.267785
464453.125000,1189,0x00001F,950932,0.544128,1241988,0.710671,949716,0.543432,468239,0.267929
464843.750000,1190,0x00001F,951112,0.544231,1242216,0.710802,949828,0.543496,468369,0.268003
465234.375000,1191,0x00001F,950996,0.544164,1241945,0.710647,949828,0.543496,468147,0.267876
465625.000000,1192,0x00001F,950728,0.544011,1242134,0.710755,949759,0.543456,468232,0.267925
466015.625000,1193,0x00001F,950941,0.544133,1242301,0.710850,949773,0.543464,468088,0.267842
466406.250000,1194,0x00001F,950907,0.544113,1241780,0.710552,949899,0.543537,468342,0.267987
466796.875000,1195,0x00001F,950594,0.543934,1241917,0.710631,949895,0.543534,468265,0.267943
467187.500000,1196,0x00001F,950692,0.543990,1242160,0.710770,949640,0.543388,468146,0.267875
467578.125000,1197,0x00001F,951051,0.544196,1242240,0.710815,949591,0.543360,468331,0.267981
467968.750000,1198,0x00001F,950822,0.544065,1242009,0.710683,949803,0.543482,468252,0.267936
468359.375000,1199,0x00001F,950894,0.544106,1241933,0.710640,949833,0.543499,468279,0.267951
468750.000000,1200,0x00001F,950885,0.544101,1242131,0.710753,949825,0.543494,468480,0.268066
469140.625000,1201,0x00001F,950836,0.544073,1241852,0.710593,950032,0.543613,468230,0.267923
469531.250000,1202,0x00001F,950825,0.544066,1242099,0.710735,950021,0.543606,468143,0.267874
469921.875000,1203,0x00001F,950831,0.544070,1242077,0.710722,949766,0.543460,468208,0.267911
470312.500000,1204,0x00001F,950970,0.544149,1242063,0.710714,949646,0.543392,468262,0.267942
470703.125000,1205,0x00001F,951014,0.544175,1241910,0.710627,949974,0.543580,468212,0.267913
471093.750000,1206,0x00001F,950868,0.544091,1241867,0.710602,949820,0.543491,468129,0.267866
471484.375000,1207,0x00001F,950654,0.543969,1242038,0.710700,950275,0.543752,468160,0.267883
471875.000000,1208,0x00001F,950925,0.544124,1241844,0.710589,950049,0.543622,468229,0.267923
472265.625000,1209,0x00001F,950772,0.544036,1242029,0.710695,949904,0.543539,468700,0.268192
472656.250000,1210,0x00001F,950948,0.544137,1241861,0.710599,949848,0.543507,468207,0.267910
473046.875000,1211,0x00001F,950810,0.544058,1242126,0.710750,949597,0.543364,468074,0.267834
473437.500000,1212,0x00001F,950742,0.544019,1242225,0.710807,950064,0.543631,468207,0.267910
473828.125000,1213,0x00001F,951031,0.544184,1242060,0.710712,949953,0.543567,468210,0.267912
474218.750000,1214,0x00001F,951149,0.544252,1242026,0.710693,949799,0.543479,468270,0.267946
474609.375000,1215,0x00001F,950982,0.544156,1242072,0.710719,949831,0.543498,468137,0.267870
475000.000000,1216,0x00001F,950929,0.544126,1241976,0.710664,949735,0.543443,468115,0.267858
475390.625000,1217,0x00001F,950895,0.544106,1242070,0.710718,949780,0.543468,468017,0.267801
475781.250000,1218,0x00001F,950686,0.543987,1242019,0.710689,949648,0.543393,468462,0.268056
476171.875000,1219,0x00001F,950786,0.544044,1242073,0.710720,949864,0.543517,468187,0.267899
476562.500000,1220,0x00001F,950924,0.544123,1242089,0.710729,949918,0.543547,468220,0.267918
476953.125000,1221,0x00001F,951065,0.544204,1242359,0.710884,949414,0.543259,468405,0.268023
477343.750000,1222,0x00001F,950899,0.544109,1241902,0.710622,949773,0.543464,468204,0.267908
477734.375000,1223,0x00001F,950794,0.544049,1241891,0.710616,949941,0.543561,467896,0.267732
478125.000000,1224,0x00001F,950626,0.543953,1241999,0.710678,949778,0.543467,468338,0.267985
478515.625000,1225,0x00001F,950867,0.544091,1242068,0.710717,950061,0.543629,468365,0.268001
478906.250000,1226,0x00001F,950663,0.543974,1242129,0.710752,949880,0.543526,467862,0.267713
479296.875000,1227,0x00001F,950833,0.544071,1242310,0.710855,950126,0.543666,468322,0.267976
479687.500000,1228,0x00001F,951107,0.544228,1241995,0.710675,950096,0.543649,468473,0.268062
480078.125000,1229,0x00001F,950750,0.544024,1242049,0.710706,949760,0.543457,467986,0.267784
480468.750000,1230,0x00001F,951124,0.544238,1242474,0.710949,949998,0.543593,468154,0.267880
480859.375000,1231,0x00001F,950866,0.544090,1242046,0.710704,949946,0.543563,468037,0.267813
481250.000000,1232,0x00001F,950618,0.543948,1241876,0.710607,949819,0.543491,468470,0.268061
481640.625000,1233,0x00001F,950884,0.544100,1241992,0.710674,949834,0.543499,468027,0.267807
482031.250000,1234,0x00001F,951054,0.544197,1241894,0.710617,950048,0.543622,468309,0.267969
482421.875000,1235,0x00001F,951080,0.544212,1242095,0.710732,949937,0.543558,468448,0.268048
482812.500000,1236,0x00001F,950822,0.544065,1241913,0.710628,949752,0.543453,468075,0.267835
483203.125000,1237,0x00001F,950775,0.544038,1242037,0.710699,949819,0.543491,467894,0.267731
483593.750000,1238,0x00001F,951127,0.544239,1241738,0.710528,949847,0.543507,468199,0.267906
483984.375000,1239,0x00001F,950723,0.544008,1241876,0.710607,950099,0.543651,468346,0.267990
484375.000000,1240,0x00001F,950992,0.544162,1242156,0.710767,949842,0.543504,468409,0.268026
484765.625000,1241,0x00001F,950884,0.544100,1242059,0.710712,949938,0.543559,468079,0.267837
485156.250000,1242,0x00001F,951239,0.544303,1242043,0.710703,949696,0.543420,468377,0.268007
485546.875000,1243,0x00001F,950769,0.544034,1241860,0.710598,949960,0.543571,468260,0.267941
485937.500000,1244,0x00001F,950819,0.544063,1241938,0.710643,950018,0.543605,468005,0.267795
486328.125000,1245,0x00001F,950805,0.544055,1241993,0.710674,950057,0.543627,468319,0.267974
486718.750000,1246,0x00001F,950819,0.544063,1242099,0.710735,950152,0.543681,468091,0.267844
487109.375000,1247,0x00001F,951097,0.544222,1242270,0.710833,949773,0.543464,468255,0.267938
487500.000000,1248,0x00001F,950686,0.543987,1242285,0.710841,949937,0.543558,468326,0.267978
487890.625000,1249,0x00001F,951152,0.544254,1242194,0.710789,949619,0.543376,468269,0.267946
