Timestamp,Sample,REG_6D,TIA1-3_RAW,TIA1-3_VALUE,TIA1-5_RAW,TIA1-5_VALUE,TIA1-8_RAW,TIA1-8_VALUE,TIA1-10_RAW,TIA1-10_VALUE
0.000000,0,0x00001F,1001119,0.572845,1311916,0.750684,998004,0.571063,629354,0.360119
390.625000,1,0x00001F,1001081,0.572823,1312084,0.750781,997981,0.571049,629436,0.360166
781.250000,2,0x00001F,1001106,0.572837,1312148,0.750817,997943,0.571028,629467,0.360184
1171.875000,3,0x00001F,1001168,0.572873,1312143,0.750814,998023,0.571073,629601,0.360261
1562.500000,4,0x00001F,1001066,0.572815,1312094,0.750786,997995,0.571057,629492,0.360198
1953.125000,5,0x00001F,1001154,0.572865,1312191,0.750842,997914,0.571011,629356,0.360120
2343.750000,6,0x00001F,1001083,0.572824,1312152,0.750819,998000,0.571060,629433,0.360164
2734.375000,7,0x00001F,1001030,0.572794,1311914,0.750683,998001,0.571061,629399,0.360145
3125.000000,8,0x00001F,1001140,0.572857,1312052,0.750762,997954,0.571034,629413,0.360153
3515.625000,9,0x00001F,1001142,0.572858,1312173,0.750831,997921,0.571015,629316,0.360098
3906.250000,10,0x00001F,1001164,0.572871,1312207,0.750851,997950,0.571032,629385,0.360137
4296.875000,11,0x00001F,1001202,0.572892,1312095,0.750787,998008,0.571065,629349,0.360116
4687.500000,12,0x00001F,1001129,0.572851,1312194,0.750843,997945,0.571029,629329,0.360105
5078.125000,13,0x00001F,1001200,0.572891,1311917,0.750685,997864,0.570982,629338,0.360110
5468.750000,14,0x00001F,1001126,0.572849,1312114,0.750798,997980,0.571049,629320,0.360100
5859.375000,15,0x00001F,1000928,0.572736,1312051,0.750762,997966,0.571041,629287,0.360081
6250.000000,16,0x00001F,1001179,0.572879,1312098,0.750789,998020,0.571072,629428,0.360162
6640.625000,17,0x00001F,1001283,0.572939,1311882,0.750665,997833,0.570965,629300,0.360088
7031.250000,18,0x00001F,1001213,0.572899,1312001,0.750733,997926,0.571018,629561,0.360238
7421.875000,19,0x00001F,1001155,0.572865,1312046,0.750759,998016,0.571069,629262,0.360067
7812.500000,20,0x00001F,1001156,0.572866,1311993,0.750728,998410,0.571295,629228,0.360047
8203.125000,21,0x00001F,1000992,0.572772,1312016,0.750742,997991,0.571055,629367,0.360127
8593.750000,22,0x00001F,1001300,0.572948,1312126,0.750805,997837,0.570967,629461,0.360180
8984.375000,23,0x00001F,1001053,0.572807,1312083,0.750780,997943,0.571028,629384,0.360136
9375.000000,24,0x00001F,1001108,0.572839,1312023,0.750746,998050,0.571089,629374,0.360131
9765.625000,25,0x00001F,1001195,0.572888,1311964,0.750712,997919,0.571014,629412,0.360152
10156.250000,26,0x00001F,1001025,0.572791,1312038,0.750754,997977,0.571047,629386,0.360138
10546.875000,27,0x00001F,1001132,0.572852,1312057,0.750765,997985,0.571052,629337,0.360110
10937.500000,28,0x00001F,1001083,0.572824,1312230,0.750864,997985,0.571052,629441,0.360169
11328.125000,29,0x00001F,1001190,0.572886,1312075,0.750775,998067,0.571099,629420,0.360157
11718.750000,30,0x00001F,1001244,0.572916,1312179,0.750835,997954,0.571034,629519,0.360214
12109.375000,31,0x00001F,1001150,0.572863,1312173,0.750831,997932,0.571021,629400,0.360146
12500.000000,32,0x00001F,1001120,0.572845,1311942,0.750699,997970,0.571043,629361,0.360123
12890.625000,33,0x00001F,1001128,0.572850,1312033,0.750751,997883,0.570993,629378,0.360133
13281.250000,34,0x00001F,1001066,0.572815,1312151,0.750819,997891,0.570998,629313,0.360096
13671.875000,35,0x00001F,1001183,0.572882,1312108,0.750794,998013,0.571068,629368,0.360127
14062.500000,36,0x00001F,1001209,0.572896,1312301,0.750905,997953,0.571033,629421,0.360158
14453.125000,37,0x00001F,1001180,0.572880,1312157,0.750822,997778,0.570933,629507,0.360207
14843.750000,38,0x00001F,1001122,0.572847,1311988,0.750726,998012,0.571067,629389,0.360139
15234.375000,39,0x00001F,1001114,0.572842,1312117,0.750799,997986,0.571052,629419,0.360156
15625.000000,40,0x00001F,1001151,0.572863,1312084,0.750781,998073,0.571102,629409,0.360151
16015.625000,41,0x00001F,1001076,0.572820,1312104,0.750792,997970,0.571043,629378,0.360133
16406.250000,42,0x00001F,1001177,0.572878,1312055,0.750764,997843,0.570970,629243,0.360056
16796.875000,43,0x00001F,1000971,0.572760,1312002,0.750734,997922,0.571016,629414,0.360154
17187.500000,44,0x00001F,1001121,0.572846,1312188,0.750840,998135,0.571137,629459,0.360179
17578.125000,45,0x00001F,1000991,0.572772,1312102,0.750791,998119,0.571128,629499,0.360202
17968.750000,46,0x00001F,1001059,0.572811,1312106,0.750793,997952,0.571033,629423,0.360159
18359.375000,47,0x00001F,1001138,0.572856,1312128,0.750806,998116,0.571127,629350,0.360117
18750.000000,48,0x00001F,1001133,0.572853,1311936,0.750696,998036,0.571081,629402,0.360147
19140.625000,49,0x00001F,1001153,0.572864,1312219,0.750858,998068,0.571099,629427,0.360161
19531.250000,50,0x00001F,1001214,0.572899,1312270,0.750887,997899,0.571002,629425,0.360160
19921.875000,51,0x00001F,1001089,0.572828,1312107,0.750794,998023,0.571073,629185,0.360023
20312.500000,52,0x00001F,1000991,0.572772,1312011,0.750739,997827,0.570961,629248,0.360059
20703.125000,53,0x00001F,1000960,0.572754,1311953,0.750706,997931,0.571021,629380,0.360134
21093.750000,54,0x00001F,1001006,0.572780,1311965,0.750712,997793,0.570942,629322,0.360101
21484.375000,55,0x00001F,1001171,0.572875,1311998,0.750731,997965,0.571040,629499,0.360202
21875.000000,56,0x00001F,1001085,0.572825,1312020,0.750744,997892,0.570998,629436,0.360166
22265.625000,57,0x00001F,1001066,0.572815,1312046,0.750759,998037,0.571081,629300,0.360088
22656.250000,58,0x00001F,1001028,0.572793,1312141,0.750813,997926,0.571018,629437,0.360167
23046.875000,59,0x00001F,1001070,0.572817,1312022,0.750745,997862,0.570981,629353,0.360119
23437.500000,60,0x00001F,1000995,0.572774,1311999,0.750732,997940,0.571026,629238,0.360053
23828.125000,61,0x00001F,1001142,0.572858,1312034,0.750752,998041,0.571084,629307,0.360092
24218.750000,62,0x00001F,1001329,0.572965,1311948,0.750703,997964,0.571040,629525,0.360217
24609.375000,63,0x00001F,1001155,0.572865,1312081,0.750779,997964,0.571040,629380,0.360134
25000.000000,64,0x00001F,1001190,0.572886,1312124,0.750803,997858,0.570979,629474,0.360188
25390.625000,65,0x00001F,1001063,0.572813,1312026,0.750747,997985,0.571052,629381,0.360135
25781.250000,66,0x00001F,1001192,0.572887,1312273,0.750889,997890,0.570997,629395,0.360143
26171.875000,67,0x00001F,1001167,0.572872,1312063,0.750768,998038,0.571082,629550,0.360231
26562.500000,68,0x00001F,1001136,0.572855,1312023,0.750746,997915,0.571012,629391,0.360140
26953.125000,69,0x00001F,1001069,0.572816,1312005,0.750735,998032,0.571079,629441,0.360169
27343.750000,70,0x00001F,1001078,0.572821,1312063,0.750768,998042,0.571084,629377,0.360132
27734.375000,71,0x00001F,1001178,0.572879,1312050,0.750761,997957,0.571036,629336,0.360109
28125.000000,72,0x00001F,1001005,0.572780,1311993,0.750728,997993,0.571056,629130,0.359991
28515.625000,73,0x00001F,1001024,0.572791,1312191,0.750842,997958,0.571036,629242,0.360055
28906.250000,74,0x00001F,1001222,0.572904,1312083,0.750780,997754,0.570919,629382,0.360135
29296.875000,75,0x00001F,1001045,0.572803,1312127,0.750805,998089,0.571111,629473,0.360187
29687.500000,76,0x00001F,1001043,0.572801,1312027,0.750748,997940,0.571026,629431,0.360163
30078.125000,77,0x00001F,1001099,0.572833,1312082,0.750779,998014,0.571068,629337,0.360110
30468.750000,78,0x00001F,1001079,0.572822,1312196,0.750845,997874,0.570988,629339,0.360111
30859.375000,79,0x00001F,1001103,0.572836,1312096,0.750787,998004,0.571063,629222,0.360044
31250.000000,80,0x00001F,1001276,0.572935,1312177,0.750834,998061,0.571095,629571,0.360243
31640.625000,81,0x00001F,1000996,0.572775,1312091,0.750785,997920,0.571014,629351,0.360118
32031.250000,82,0x00001F,1001048,0.572804,1312063,0.750768,997978,0.571048,629267,0.360069
32421.875000,83,0x00001F,1001269,0.572931,1312091,0.750785,998124,0.571131,629346,0.360115
32812.500000,84,0x00001F,1000948,0.572747,1312074,0.750775,998034,0.571080,629468,0.360184
33203.125000,85,0x00001F,1000993,0.572773,1312223,0.750860,997986,0.571052,629290,0.360083
33593.750000,86,0x00001F,1001208,0.572896,1312171,0.750830,997997,0.571059,629440,0.360168
33984.375000,87,0x00001F,1001251,0.572920,1312281,0.750893,997938,0.571025,629463,0.360182
34375.000000,88,0x00001F,1001148,0.572861,1312041,0.750756,998007,0.571064,629460,0.360180
34765.625000,89,0x00001F,1001183,0.572882,1312077,0.750777,998056,0.571092,629317,0.360098
35156.250000,90,0x00001F,1001027,0.572792,1312169,0.750829,998046,0.571087,629307,0.360092
35546.875000,91,0x00001F,1001069,0.572816,1312217,0.750857,998045,0.571086,629332,0.360107
35937.500000,92,0x00001F,1001152,0.572864,1312053,0.750763,998105,0.571120,629490,0.360197
36328.125000,93,0x00001F,1001115,0.572843,1312032,0.750751,998087,0.571110,629538,0.360225
36718.750000,94,0x00001F,1001117,0.572844,1312073,0.750774,998050,0.571089,629551,0.360232
37109.375000,95,0x00001F,1000967,0.572758,1312059,0.750766,997896,0.571001,629375,0.360131
37500.000000,96,0x00001F,1001079,0.572822,1312051,0.750762,997947,0.571030,629453,0.360176
37890.625000,97,0x00001F,1001098,0.572833,1312377,0.750948,997992,0.571056,629396,0.360143
38281.250000,98,0x00001F,1001050,0.572805,1311894,0.750672,997962,0.571038,629342,0.360112
38671.875000,99,0x00001F,1001110,0.572840,1312005,0.750735,997934,0.571022,629550,0.360231
39062.500000,100,0x00001F,1001007,0.572781,1312021,0.750744,997915,0.571012,629168,0.360013
39453.125000,101,0x00001F,1001154,0.572865,1312179,0.750835,997963,0.571039,629576,0.360246
39843.750000,102,0x00001F,1001211,0.572898,1312073,0.750774,998076,0.571104,629572,0.360244
40234.375000,103,0x00001F,1001019,0.572788,1312089,0.750783,997937,0.571024,629289,0.360082
40625.000000,104,0x00001F,1001052,0.572807,1312138,0.750811,997968,0.571042,629365,0.360126
41015.625000,105,0x00001F,1001257,0.572924,1312168,0.750829,997952,0.571033,629466,0.360183
41406.250000,106,0x00001F,1001159,0.572868,1312131,0.750807,997862,0.570981,629363,0.360124
41796.875000,107,0x00001F,1001034,0.572796,1312173,0.750831,998117,0.571127,629432,0.360164
42187.500000,108,0x00001F,1000959,0.572753,1312108,0.750794,997872,0.570987,629239,0.360053
42578.125000,109,0x00001F,1001076,0.572820,1312048,0.750760,998052,0.571090,629294,0.360085
42968.750000,110,0x00001F,1001138,0.572856,1312143,0.750814,998007,0.571064,629402,0.360147
43359.375000,111,0x00001F,1001175,0.572877,1312285,0.750896,997973,0.571045,629404,0.360148
43750.000000,112,0x00001F,1001088,0.572827,1312336,0.750925,998153,0.571148,629550,0.360231
44140.625000,113,0x00001F,1000996,0.572775,1312195,0.750844,997938,0.571025,629380,0.360134
44531.250000,114,0x00001F,1001256,0.572923,1312101,0.750790,997997,0.571059,629339,0.360111
44921.875000,115,0x00001F,1001187,0.572884,1312181,0.750836,997982,0.571050,629449,0.360174
45312.500000,116,0x00001F,1001061,0.572812,1312128,0.750806,998073,0.571102,629402,0.360147
45703.125000,117,0x00001F,1001117,0.572844,1312136,0.750810,998029,0.571077,629344,0.360114
46093.750000,118,0x00001F,1001183,0.572882,1312072,0.750774,997994,0.571057,629429,0.360162
46484.375000,119,0x00001F,1001096,0.572832,1312074,0.750775,998010,0.571066,629531,0.360221
46875.000000,120,0x00001F,1001124,0.572848,1312085,0.750781,998021,0.571072,629457,0.360178
47265.625000,121,0x00001F,1001274,0.572934,1312073,0.750774,997906,0.571006,629437,0.360167
47656.250000,122,0x00001F,1001145,0.572860,1312199,0.750846,998008,0.571065,629378,0.360133
48046.875000,123,0x00001F,1001185,0.572883,1312084,0.750781,998011,0.571066,629230,0.360048
48437.500000,124,0x00001F,1000989,0.572771,1312033,0.750751,997886,0.570995,629437,0.360167
48828.125000,125,0x00001F,1001048,0.572804,1312154,0.750821,998028,0.571076,629252,0.360061
49218.750000,126,0x00001F,1001179,0.572879,1312179,0.750835,997994,0.571057,629460,0.360180
49609.375000,127,0x00001F,1001011,0.572783,1312073,0.750774,997941,0.571026,629430,0.360163
50000.000000,128,0x00001F,1001052,0.572807,1312137,0.750811,997987,0.571053,629321,0.360100
50390.625000,129,0x00001F,1001072,0.572818,1312050,0.750761,997962,0.571038,629368,0.360127
50781.250000,130,0x00001F,1001180,0.572880,1312157,0.750822,997862,0.570981,629407,0.360150
51171.875000,131,0x00001F,1001192,0.572887,1312153,0.750820,998037,0.571081,629450,0.360174
51562.500000,132,0x00001F,1001075,0.572820,1311997,0.750731,998047,0.571087,629392,0.360141
51953.125000,133,0x00001F,1001240,0.572914,1312067,0.750771,997830,0.570963,629369,0.360128
52343.750000,134,0x00001F,1001161,0.572869,1312175,0.750833,998018,0.571070,629451,0.360175
52734.375000,135,0x00001F,1001275,0.572934,1312226,0.750862,997802,0.570947,629347,0.360115
53125.000000,136,0x00001F,1001148,0.572861,1312066,0.750770,997846,0.570972,629329,0.360105
53515.625000,137,0x00001F,1001229,0.572908,1312010,0.750738,997922,0.571016,629383,0.360136
53906.250000,138,0x00001F,1001124,0.572848,1312056,0.750764,997946,0.571029,629414,0.360154
54296.875000,139,0x00001F,1001051,0.572806,1312108,0.750794,998057,0.571093,629438,0.360167
54687.500000,140,0x00001F,1001038,0.572799,1312126,0.750805,998120,0.571129,629555,0.360234
55078.125000,141,0x00001F,1000982,0.572767,1312098,0.750789,998073,0.571102,629377,0.360132
55468.750000,142,0x00001F,1001298,0.572947,1311988,0.750726,997901,0.571004,629439,0.360168
55859.375000,143,0x00001F,1001200,0.572891,1312160,0.750824,997913,0.571010,629461,0.360180
56250.000000,144,0x00001F,1001120,0.572845,1312084,0.750781,998097,0.571116,629439,0.360168
56640.625000,145,0x00001F,1001138,0.572856,1312154,0.750821,997736,0.570909,629425,0.360160
57031.250000,146,0x00001F,1001081,0.572823,1311983,0.750723,998050,0.571089,629362,0.360124
57421.875000,147,0x00001F,1001117,0.572844,1312273,0.750889,997913,0.571010,629347,0.360115
57812.500000,148,0x00001F,1001017,0.572787,1312146,0.750816,998104,0.571120,629304,0.360091
58203.125000,149,0x00001F,1001083,0.572824,1312005,0.750735,997811,0.570952,629413,0.360153
58593.750000,150,0x00001F,1000891,0.572714,1312000,0.750732,997967,0.571041,629342,0.360112
58984.375000,151,0x00001F,1001048,0.572804,1312023,0.750746,998113,0.571125,629489,0.360197
59375.000000,152,0x00001F,1001043,0.572801,1312031,0.750750,997962,0.571038,629481,0.360192
59765.625000,153,0x00001F,1000994,0.572773,1312100,0.750790,998169,0.571157,629441,0.360169
60156.250000,154,0x00001F,1001070,0.572817,1312127,0.750805,997917,0.571013,629260,0.360065
60546.875000,155,0x00001F,1001156,0.572866,1312195,0.750844,998003,0.571062,629405,0.360148
60937.500000,156,0x00001F,1001033,0.572796,1312004,0.750735,997918,0.571013,629396,0.360143
61328.125000,157,0x00001F,1001057,0.572809,1312090,0.750784,998135,0.571137,629420,0.360157
61718.750000,158,0x00001F,1001174,0.572876,1312128,0.750806,997859,0.570980,629308,0.360093
62109.375000,159,0x00001F,1001176,0.572878,1312184,0.750838,997930,0.571020,629308,0.360093
62500.000000,160,0x00001F,1001219,0.572902,1312238,0.750869,997808,0.570950,629294,0.360085
62890.625000,161,0x00001F,1001147,0.572861,1312075,0.750775,997864,0.570982,629478,0.360190
63281.250000,162,0x00001F,1001300,0.572948,1311995,0.750730,998085,0.571109,629420,0.360157
63671.875000,163,0x00001F,1001105,0.572837,1312118,0.750800,998053,0.571091,629401,0.360146
64062.500000,164,0x00001F,1001159,0.572868,1312078,0.750777,998039,0.571083,629454,0.360176
64453.125000,165,0x00001F,1001066,0.572815,1312062,0.750768,998020,0.571072,629455,0.360177
64843.750000,166,0x00001F,1001031,0.572795,1312141,0.750813,998032,0.571079,629338,0.360110
65234.375000,167,0x00001F,1001194,0.572888,1311967,0.750714,998070,0.571100,629541,0.360226
65625.000000,168,0x00001F,1001132,0.572852,1312139,0.750812,997808,0.570950,629425,0.360160
66015.625000,169,0x00001F,1001119,0.572845,1312105,0.750793,998054,0.571091,629463,0.360182
66406.250000,170,0x00001F,1001250,0.572920,1312028,0.750748,998138,0.571139,629391,0.360140
66796.875000,171,0x00001F,1000949,0.572748,1312112,0.750797,997997,0.571059,629398,0.360144
67187.500000,172,0x00001F,1001092,0.572829,1312155,0.750821,997948,0.571030,629341,0.360112
67578.125000,173,0x00001F,1001259,0.572925,1312025,0.750747,998091,0.571112,629445,0.360171
67968.750000,174,0x00001F,1001072,0.572818,1312077,0.750777,997928,0.571019,629477,0.360190
68359.375000,175,0x00001F,1001003,0.572779,1312059,0.750766,997985,0.571052,629309,0.360094
68750.000000,176,0x00001F,1001040,0.572800,1312129,0.750806,998017,0.571070,629366,0.360126
69140.625000,177,0x00001F,1001066,0.572815,1311866,0.750656,998010,0.571066,629322,0.360101
69531.250000,178,0x00001F,1001039,0.572799,1312089,0.750783,997874,0.570988,629413,0.360153
69921.875000,179,0x00001F,1000988,0.572770,1311964,0.750712,997987,0.571053,629315,0.360097
70312.500000,180,0x00001F,1001278,0.572936,1311997,0.750731,997746,0.570915,629506,0.360206
70703.125000,181,0x00001F,1001150,0.572863,1312144,0.750815,997945,0.571029,629452,0.360175
71093.750000,182,0x00001F,1001047,0.572804,1312021,0.750744,997995,0.571057,629323,0.360102
71484.375000,183,0x00001F,1001033,0.572796,1312010,0.750738,998017,0.571070,629418,0.360156
71875.000000,184,0x00001F,1000943,0.572744,1311971,0.750716,998015,0.571069,629390,0.360140
72265.625000,185,0x00001F,1001044,0.572802,1312230,0.750864,997967,0.571041,629393,0.360142
72656.250000,186,0x00001F,1001200,0.572891,1312113,0.750797,997933,0.571022,629341,0.360112
73046.875000,187,0x00001F,1001245,0.572917,1312171,0.750830,997811,0.570952,629433,0.360164
73437.500000,188,0x00001F,1001112,0.572841,1312193,0.750843,997971,0.571044,629455,0.360177
73828.125000,189,0x00001F,1001126,0.572849,1312092,0.750785,998095,0.571115,629325,0.360103
74218.750000,190,0x00001F,1001326,0.572963,1312256,0.750879,998004,0.571063,629500,0.360203
74609.375000,191,0x00001F,1001080,0.572823,1312094,0.750786,997818,0.570956,629346,0.360115
75000.000000,192,0x00001F,1001236,0.572912,1312164,0.750826,997874,0.570988,629414,0.360154
75390.625000,193,0x00001F,1001053,0.572807,1311951,0.750704,998055,0.571092,629417,0.360155
75781.250000,194,0x00001F,1001064,0.572813,1312103,0.750791,998045,0.571086,629472,0.360187
76171.875000,195,0x00001F,1001097,0.572832,1312083,0.750780,997952,0.571033,629405,0.360148
76562.500000,196,0x00001F,1001211,0.572898,1312019,0.750743,998107,0.571121,629369,0.360128
76953.125000,197,0x00001F,1000922,0.572732,1312067,0.750771,997926,0.571018,629370,0.360128
77343.750000,198,0x00001F,1001115,0.572843,1311938,0.750697,997920,0.571014,629392,0.360141
77734.375000,199,0x00001F,1000999,0.572776,1312139,0.750812,997857,0.570978,629451,0.360175
78125.000000,200,0x00001F,1001144,0.572859,1312011,0.750739,998050,0.571089,629400,0.360146
78515.625000,201,0x00001F,1000993,0.572773,1312114,0.750798,998047,0.571087,629388,0.360139
78906.250000,202,0x00001F,1001126,0.572849,1311934,0.750695,997918,0.571013,629373,0.360130
79296.875000,203,0x00001F,1001047,0.572804,1312102,0.750791,998006,0.571064,629452,0.360175
79687.500000,204,0x00001F,1001010,0.572783,1312003,0.750734,998027,0.571076,629388,0.360139
80078.125000,205,0x00001F,1001104,0.572836,1312131,0.750807,997788,0.570939,629300,0.360088
80468.750000,206,0x00001F,1000979,0.572765,1312144,0.750815,997986,0.571052,629481,0.360192
80859.375000,207,0x00001F,1001102,0.572835,1312100,0.750790,997927,0.571018,629348,0.360116
81250.000000,208,0x00001F,1001077,0.572821,1312038,0.750754,998062,0.571096,629364,0.360125
81640.625000,209,0x00001F,1001223,0.572904,1312194,0.750843,997850,0.570974,629305,0.360091
82031.250000,210,0x00001F,1001004,0.572779,1312159,0.750823,997850,0.570974,629450,0.360174
82421.875000,211,0x00001F,1001262,0.572927,1312125,0.750804,997941,0.571026,629471,0.360186
82812.500000,212,0x00001F,1001027,0.572792,1312148,0.750817,997900,0.571003,629564,0.360239
83203.125000,213,0x00001F,1001154,0.572865,1311988,0.750726,998085,0.571109,629316,0.360098
83593.750000,214,0x00001F,1001048,0.572804,1312150,0.750818,997990,0.571054,629431,0.360163
83984.375000,215,0x00001F,1001209,0.572896,1312182,0.750837,997959,0.571037,629452,0.360175
84375.000000,216,0x00001F,1001097,0.572832,1312180,0.750835,998050,0.571089,629337,0.360110
84765.625000,217,0x00001F,1001111,0.572840,1312218,0.750857,997942,0.571027,629419,0.360156
85156.250000,218,0x00001F,1001121,0.572846,1312149,0.750818,998006,0.571064,629429,0.360162
85546.875000,219,0x00001F,1001086,0.572826,1312141,0.750813,997944,0.571028,629446,0.360172
85937.500000,220,0x00001F,1001171,0.572875,1312040,0.750755,997989,0.571054,629472,0.360187
86328.125000,221,0x00001F,1001127,0.572850,1312055,0.750764,998037,0.571081,629358,0.360122
86718.750000,222,0x00001F,1001069,0.572816,1312210,0.750853,997974,0.571045,629195,0.360028
87109.375000,223,0x00001F,1001027,0.572792,1312206,0.750850,997888,0.570996,629250,0.360060
87500.000000,224,0x00001F,1001072,0.572818,1311998,0.750731,997968,0.571042,629452,0.360175
87890.625000,225,0x00001F,1000995,0.572774,1312180,0.750835,998027,0.571076,629352,0.360118
88281.250000,226,0x00001F,1001004,0.572779,1312010,0.750738,997974,0.571045,629485,0.360194
88671.875000,227,0x00001F,1001147,0.572861,1312075,0.750775,998046,0.571087,629401,0.360146
89062.500000,228,0x00001F,1001051,0.572806,1312189,0.750841,997896,0.571001,629253,0.360061
89453.125000,229,0x00001F,1001097,0.572832,1312016,0.750742,997994,0.571057,629460,0.360180
89843.750000,230,0x00001F,1001149,0.572862,1312244,0.750872,997824,0.570960,629515,0.360211
90234.375000,231,0x00001F,1001111,0.572840,1312085,0.750781,998004,0.571063,629383,0.360136
90625.000000,232,0x00001F,1001218,0.572902,1312025,0.750747,997786,0.570938,629239,0.360053
91015.625000,233,0x00001F,1001321,0.572960,1312220,0.750858,997858,0.570979,629380,0.360134
91406.250000,234,0x00001F,1001016,0.572786,1311920,0.750687,997910,0.571009,629314,0.360096
91796.875000,235,0x00001F,1001167,0.572872,1312069,0.750772,997930,0.571020,629254,0.360062
92187.500000,236,0x00001F,1001132,0.572852,1312108,0.750794,997910,0.571009,629499,0.360202
92578.125000,237,0x00001F,1001043,0.572801,1312140,0.750813,997895,0.571000,629353,0.360119
92968.750000,238,0x00001F,1000953,0.572750,1312051,0.750762,998072,0.571101,629357,0.360121
93359.375000,239,0x00001F,1001124,0.572848,1312162,0.750825,997932,0.571021,629376,0.360132
93750.000000,240,0x00001F,1001056,0.572809,1312150,0.750818,997963,0.571039,629514,0.360211
94140.625000,241,0x00001F,1000963,0.572756,1312035,0.750753,997961,0.571038,629369,0.360128
94531.250000,242,0x00001F,1001333,0.572967,1312087,0.750782,997818,0.570956,629402,0.360147
94921.875000,243,0x00001F,1001092,0.572829,1312219,0.750858,997934,0.571022,629509,0.360208
95312.500000,244,0x00001F,1001043,0.572801,1312094,0.750786,997934,0.571022,629417,0.360155
95703.125000,245,0x00001F,1001157,0.572867,1312008,0.750737,997970,0.571043,629314,0.360096
96093.750000,246,0x00001F,1001033,0.572796,1312063,0.750768,997908,0.571008,629385,0.360137
96484.375000,247,0x00001F,1001083,0.572824,1312082,0.750779,997931,0.571021,629551,0.360232
96875.000000,248,0x00001F,1001140,0.572857,1312167,0.750828,997970,0.571043,629368,0.360127
97265.625000,249,0x00001F,1001096,0.572832,1312020,0.750744,997838,0.570967,629413,0.360153
97656.250000,250,0x00001F,1000959,0.572753,1312069,0.750772,997943,0.571028,629322,0.360101
98046.875000,251,0x00001F,1001115,0.572843,1312053,0.750763,998062,0.571096,629405,0.360148
98437.500000,252,0x00001F,1001046,0.572803,1312030,0.750750,998114,0.571125,629386,0.360138
98828.125000,253,0x00001F,1001171,0.572875,1312207,0.750851,997840,0.570969,629326,0.360103
99218.750000,254,0x00001F,1001040,0.572800,1312152,0.750819,998032,0.571079,629571,0.360243
99609.375000,255,0x00001F,1001146,0.572860,1311982,0.750722,997934,0.571022,629395,0.360143
100000.000000,256,0x00001F,1001096,0.572832,1312003,0.750734,998150,0.571146,629539,0.360225
100390.625000,257,0x00001F,1001045,0.572803,1312118,0.750800,997973,0.571045,629292,0.360084
100781.250000,258,0x00001F,1001179,0.572879,1311987,0.750725,998011,0.571066,629506,0.360206
101171.875000,259,0x00001F,1001013,0.572784,1312232,0.750865,997887,0.570996,629282,0.360078
101562.500000,260,0x00001F,1001043,0.572801,1312246,0.750873,997876,0.570989,629263,0.360067
101953.125000,261,0x00001F,1001091,0.572829,1312148,0.750817,997815,0.570954,629426,0.360160
102343.750000,262,0x00001F,1001055,0.572808,1312034,0.750752,998002,0.571061,629289,0.360082
102734.375000,263,0x00001F,1001088,0.572827,1311982,0.750722,998088,0.571111,629374,0.360131
103125.000000,264,0x00001F,1001092,0.572829,1311928,0.750691,997917,0.571013,629371,0.360129
103515.625000,265,0x00001F,1001165,0.572871,1312120,0.750801,997817,0.570956,629320,0.360100
103906.250000,266,0x00001F,1001182,0.572881,1312267,0.750885,997914,0.571011,629421,0.360158
104296.875000,267,0x00001F,1001281,0.572938,1312126,0.750805,997991,0.571055,629330,0.360106
104687.500000,268,0x00001F,1001120,0.572845,1312091,0.750785,997814,0.570954,629458,0.360179
105078.125000,269,0x00001F,1001066,0.572815,1312087,0.750782,997888,0.570996,629267,0.360069
105468.750000,270,0x00001F,1001032,0.572795,1312034,0.750752,998012,0.571067,629444,0.360171
105859.375000,271,0x00001F,1001297,0.572947,1312133,0.750809,998079,0.571105,629506,0.360206
106250.000000,272,0x00001F,1001079,0.572822,1312191,0.750842,997945,0.571029,629424,0.360159
106640.625000,273,0x00001F,1001125,0.572848,1311971,0.750716,998188,0.571168,629379,0.360134
107031.250000,274,0x00001F,1001191,0.572886,1312028,0.750748,997904,0.571005,629629,0.360277
107421.875000,275,0x00001F,1001096,0.572832,1312017,0.750742,998005,0.571063,629450,0.360174
107812.500000,276,0x00001F,1001139,0.572856,1312029,0.750749,998007,0.571064,629297,0.360087
108203.125000,277,0x00001F,1001158,0.572867,1312043,0.750757,998083,0.571108,629452,0.360175
108593.750000,278,0x00001F,1001245,0.572917,1312049,0.750760,997935,0.571023,629384,0.360136
108984.375000,279,0x00001F,1001144,0.572859,1311993,0.750728,998005,0.571063,629494,0.360199
109375.000000,280,0x00001F,1001097,0.572832,1312146,0.750816,997959,0.571037,629433,0.360164
109765.625000,281,0x00001F,1001153,0.572864,1311872,0.750659,997946,0.571029,629324,0.360102
110156.250000,282,0x00001F,1001137,0.572855,1312108,0.750794,998070,0.571100,629478,0.360190
110546.875000,283,0x00001F,1001066,0.572815,1311976,0.750719,998025,0.571074,629535,0.360223
110937.500000,284,0x00001F,1001156,0.572866,1312177,0.750834,998004,0.571063,629439,0.360168
111328.125000,285,0x00001F,1001148,0.572861,1312155,0.750821,997822,0.570958,629437,0.360167
111718.750000,286,0x00001F,1001167,0.572872,1312260,0.750881,998000,0.571060,629484,0.360194
112109.375000,287,0x00001F,1001065,0.572814,1312075,0.750775,997911,0.571009,629428,0.360162
112500.000000,288,0x00001F,1001068,0.572816,1312060,0.750767,997976,0.571046,629497,0.360201
112890.625000,289,0x00001F,1001133,0.572853,1311964,0.750712,997952,0.571033,629397,0.360144
113281.250000,290,0x00001F,1001105,0.572837,1312176,0.750833,997900,0.571003,629441,0.360169
113671.875000,291,0x00001F,1001110,0.572840,1312250,0.750876,997963,0.571039,629477,0.360190
114062.500000,292,0x00001F,1001255,0.572923,1312065,0.750770,997875,0.570989,629336,0.360109
114453.125000,293,0x00001F,1001076,0.572820,1312066,0.750770,998139,0.571140,629350,0.360117
114843.750000,294,0x00001F,1001098,0.572833,1312135,0.750810,998026,0.571075,629289,0.360082
115234.375000,295,0x00001F,1001060,0.572811,1312049,0.750760,997936,0.571024,629301,0.360089
115625.000000,296,0x00001F,1001029,0.572793,1312044,0.750758,997991,0.571055,629232,0.360049
116015.625000,297,0x00001F,1001100,0.572834,1312169,0.750829,997939,0.571025,629386,0.360138
116406.250000,298,0x00001F,1001072,0.572818,1312063,0.750768,997758,0.570922,629404,0.360148
116796.875000,299,0x00001F,1001077,0.572821,1312121,0.750802,997972,0.571044,629392,0.360141
117187.500000,300,0x00001F,1001061,0.572812,1312143,0.750814,998056,0.571092,629405,0.360148
117578.125000,301,0x00001F,1001075,0.572820,1312035,0.750753,997975,0.571046,629480,0.360191
117968.750000,302,0x00001F,1001126,0.572849,1312002,0.750734,997957,0.571036,629309,0.360094
118359.375000,303,0x00001F,1001144,0.572859,1312135,0.750810,997976,0.571046,629417,0.360155
118750.000000,304,0x00001F,1001136,0.572855,1312258,0.750880,998019,0.571071,629285,0.360080
119140.625000,305,0x00001F,1001019,0.572788,1312117,0.750799,997895,0.571000,629383,0.360136
119531.250000,306,0x00001F,1001013,0.572784,1312175,0.750833,997949,0.571031,629303,0.360090
119921.875000,307,0x00001F,1001007,0.572781,1312134,0.750809,998019,0.571071,629476,0.360189
120312.500000,308,0x00001F,1001127,0.572850,1312137,0.750811,997947,0.571030,629448,0.360173
120703.125000,309,0x00001F,1000981,0.572766,1312094,0.750786,997986,0.571052,629395,0.360143
121093.750000,310,0x00001F,1001120,0.572845,1312181,0.750836,997988,0.571053,629396,0.360143
121484.375000,311,0x00001F,1001144,0.572859,1312269,0.750886,997833,0.570965,629493,0.360199
121875.000000,312,0x00001F,1001009,0.572782,1311970,0.750715,997977,0.571047,629314,0.360096
122265.625000,313,0x00001F,1001308,0.572953,1312113,0.750797,997846,0.570972,629506,0.360206
122656.250000,314,0x00001F,1001087,0.572827,1312091,0.750785,997979,0.571048,629371,0.360129
123046.875000,315,0x00001F,1001042,0.572801,1312219,0.750858,997926,0.571018,629274,0.360073
123437.500000,316,0x00001F,1000914,0.572728,1312003,0.750734,998010,0.571066,629396,0.360143
123828.125000,317,0x00001F,1001251,0.572920,1312148,0.750817,997855,0.570977,629415,0.360154
124218.750000,318,0x00001F,1000994,0.572773,1312054,0.750763,998035,0.571080,629489,0.360197
124609.375000,319,0x00001F,1001047,0.572804,1312130,0.750807,998096,0.571115,629479,0.360191
125000.000000,320,0x00001F,1001138,0.572856,1312030,0.750750,998100,0.571117,629466,0.360183
125390.625000,321,0x00001F,1001073,0.572819,1312038,0.750754,998038,0.571082,629338,0.360110
125781.250000,322,0x00001F,1001094,0.572831,1312116,0.750799,997963,0.571039,629349,0.360116
126171.875000,323,0x00001F,1001103,0.572836,1312079,0.750778,997991,0.571055,629411,0.360152
126562.500000,324,0x00001F,1001061,0.572812,1312045,0.750758,997856,0.570978,629456,0.360178
126953.125000,325,0x00001F,1000926,0.572734,1312041,0.750756,997791,0.570941,629318,0.360099
127343.750000,326,0x00001F,1001066,0.572815,1312006,0.750736,997962,0.571038,629430,0.360163
127734.375000,327,0x00001F,1001148,0.572861,1312028,0.750748,997949,0.571031,629416,0.360155
128125.000000,328,0x00001F,1001005,0.572780,1312106,0.750793,997727,0.570904,629389,0.360139
128515.625000,329,0x00001F,1001150,0.572863,1311997,0.750731,997892,0.570998,629253,0.360061
128906.250000,330,0x00001F,1001116,0.572843,1312172,0.750831,997915,0.571012,629368,0.360127
129296.875000,331,0x00001F,1001083,0.572824,1312051,0.750762,997987,0.571053,629414,0.360154
129687.500000,332,0x00001F,1001210,0.572897,1311934,0.750695,998050,0.571089,629469,0.360185
130078.125000,333,0x00001F,1000973,0.572761,1312053,0.750763,997813,0.570953,629296,0.360086
130468.750000,334,0x00001F,1001044,0.572802,1312136,0.750810,997979,0.571048,629208,0.360036
130859.375000,335,0x00001F,1001042,0.572801,1312092,0.750785,997922,0.571016,629465,0.360183
131250.000000,336,0x00001F,1001079,0.572822,1312036,0.750753,997829,0.570962,629350,0.360117
131640.625000,337,0x00001F,1001018,0.572787,1312128,0.750806,997956,0.571035,629287,0.360081
132031.250000,338,0x00001F,1000966,0.572757,1312055,0.750764,998122,0.571130,629469,0.360185
132421.875000,339,0x00001F,1001106,0.572837,1312084,0.750781,998017,0.571070,629431,0.360163
132812.500000,340,0x00001F,1001042,0.572801,1312103,0.750791,997716,0.570898,629438,0.360167
133203.125000,341,0x00001F,1001205,0.572894,1312051,0.750762,998049,0.571088,629320,0.360100
133593.750000,342,0x00001F,1001315,0.572957,1312199,0.750846,997935,0.571023,629343,0.360113
133984.375000,343,0x00001F,1001082,0.572824,1312026,0.750747,998050,0.571089,629522,0.360215
134375.000000,344,0x00001F,1001054,0.572808,1312148,0.750817,998020,0.571072,629398,0.360144
134765.625000,345,0x00001F,1001074,0.572819,1311902,0.750676,997968,0.571042,629341,0.360112
135156.250000,346,0x00001F,1001068,0.572816,1312101,0.750790,997951,0.571032,629475,0.360188
135546.875000,347,0x00001F,1001177,0.572878,1312155,0.750821,997962,0.571038,629355,0.360120
135937.500000,348,0x00001F,1001119,0.572845,1312114,0.750798,997960,0.571037,629543,0.360227
136328.125000,349,0x00001F,1001031,0.572795,1312082,0.750779,997969,0.571042,629461,0.360180
136718.750000,350,0x00001F,1000959,0.572753,1312068,0.750771,998046,0.571087,629562,0.360238
137109.375000,351,0x00001F,1001203,0.572893,1312018,0.750743,997995,0.571057,629506,0.360206
137500.000000,352,0x00001F,1000986,0.572769,1311988,0.750726,997924,0.571017,629536,0.360223
137890.625000,353,0x00001F,1000998,0.572776,1311997,0.750731,997960,0.571037,629381,0.360135
138281.250000,354,0x00001F,1001072,0.572818,1311996,0.750730,997906,0.571006,629421,0.360158
138671.875000,355,0x00001F,1000988,0.572770,1311929,0.750692,998014,0.571068,629631,0.360278
139062.500000,356,0x00001F,1001093,0.572830,1311961,0.750710,998098,0.571116,629410,0.360151
139453.125000,357,0x00001F,1001042,0.572801,1312043,0.750757,997963,0.571039,629372,0.360130
139843.750000,358,0x00001F,1001003,0.572779,1311921,0.750687,997987,0.571053,629295,0.360085
140234.375000,359,0x00001F,1001132,0.572852,1311996,0.750730,997828,0.570962,629295,0.360085
140625.000000,360,0x00001F,1000994,0.572773,1312137,0.750811,997878,0.570990,629367,0.360127
141015.625000,361,0x00001F,1001151,0.572863,1312158,0.750823,997882,0.570993,629523,0.360216
141406.250000,362,0x00001F,1001054,0.572808,1312260,0.750881,997939,0.571025,629377,0.360132
141796.875000,363,0x00001F,1001108,0.572839,1312089,0.750783,997904,0.571005,629277,0.360075
142187.500000,364,0x00001F,1001070,0.572817,1311989,0.750726,997946,0.571029,629339,0.360111
142578.125000,365,0x00001F,1001176,0.572878,1312293,0.750900,998009,0.571065,629465,0.360183
142968.750000,366,0x00001F,1001105,0.572837,1312133,0.750809,997999,0.571060,629422,0.360158
143359.375000,367,0x00001F,1001232,0.572910,1312151,0.750819,997836,0.570966,629488,0.360196
143750.000000,368,0x00001F,1000938,0.572741,1312128,0.750806,997779,0.570934,629470,0.360186
144140.625000,369,0x00001F,1000999,0.572776,1312095,0.750787,998091,0.571112,629476,0.360189
144531.250000,370,0x00001F,1001163,0.572870,1312059,0.750766,998057,0.571093,629289,0.360082
144921.875000,371,0x00001F,1000986,0.572769,1312055,0.750764,997905,0.571006,629383,0.360136
145312.500000,372,0x00001F,1001079,0.572822,1312051,0.750762,998121,0.571129,629356,0.360120
145703.125000,373,0x00001F,1001415,0.573014,1312051,0.750762,998048,0.571088,629376,0.360132
146093.750000,374,0x00001F,1001179,0.572879,1312065,0.750770,997871,0.570986,629363,0.360124
146484.375000,375,0x00001F,1001296,0.572946,1312052,0.750762,998004,0.571063,629459,0.360179
146875.000000,376,0x00001F,1001021,0.572789,1311904,0.750678,998082,0.571107,629377,0.360132
147265.625000,377,0x00001F,1001215,0.572900,1312008,0.750737,998145,0.571143,629468,0.360184
147656.250000,378,0x00001F,1001044,0.572802,1312093,0.750786,997912,0.571010,629315,0.360097
148046.875000,379,0x00001F,1001128,0.572850,1312221,0.750859,997996,0.571058,629478,0.360190
148437.500000,380,0x00001F,1001013,0.572784,1312060,0.750767,997836,0.570966,629400,0.360146
148828.125000,381,0x00001F,1001064,0.572813,1311986,0.750724,997969,0.571042,629336,0.360109
149218.750000,382,0x00001F,1001184,0.572882,1311995,0.750730,997992,0.571056,629397,0.360144
149609.375000,383,0x00001F,1001102,0.572835,1311926,0.750690,997877,0.570990,629452,0.360175
150000.000000,384,0x00001F,1001068,0.572816,1312119,0.750801,997958,0.571036,629347,0.360115
150390.625000,385,0x00001F,1001194,0.572888,1312094,0.750786,997843,0.570970,629361,0.360123
150781.250000,386,0x00001F,1001299,0.572948,1312088,0.750783,997814,0.570954,629526,0.360218
151171.875000,387,0x00001F,1001072,0.572818,1312080,0.750778,997947,0.571030,629423,0.360159
151562.500000,388,0x00001F,1001152,0.572864,1311974,0.750718,997885,0.570994,629258,0.360064
151953.125000,389,0x00001F,1001037,0.572798,1312012,0.750739,997933,0.571022,629360,0.360123
152343.750000,390,0x00001F,1001105,0.572837,1312207,0.750851,997831,0.570964,629414,0.360154
152734.375000,391,0x00001F,1001040,0.572800,1312147,0.750817,997957,0.571036,629368,0.360127
153125.000000,392,0x00001F,1001177,0.572878,1312047,0.750759,997769,0.570928,629302,0.360090
153515.625000,393,0x00001F,1001143,0.572859,1312128,0.750806,997919,0.571014,629471,0.360186
153906.250000,394,0x00001F,1001125,0.572848,1312121,0.750802,998049,0.571088,629344,0.360114
154296.875000,395,0x00001F,1001280,0.572937,1312189,0.750841,997840,0.570969,629377,0.360132
154687.500000,396,0x00001F,1001184,0.572882,1312106,0.750793,998017,0.571070,629415,0.360154
155078.125000,397,0x00001F,1001195,0.572888,1312093,0.750786,997876,0.570989,629380,0.360134
155468.750000,398,0x00001F,1001207,0.572895,1311999,0.750732,998028,0.571076,629389,0.360139
155859.375000,399,0x00001F,1001052,0.572807,1311959,0.750709,997977,0.571047,629276,0.360075
156250.000000,400,0x00001F,1001153,0.572864,1312171,0.750830,998258,0.571208,629483,0.360193
156640.625000,401,0x00001F,1000949,0.572748,1311932,0.750694,997965,0.571040,629319,0.360099
157031.250000,402,0x00001F,1001124,0.572848,1312050,0.750761,998105,0.571120,629352,0.360118
157421.875000,403,0x00001F,1001156,0.572866,1312112,0.750797,997964,0.571040,629479,0.360191
157812.500000,404,0x00001F,1001084,0.572825,1311990,0.750727,997963,0.571039,629341,0.360112
158203.125000,405,0x00001F,1001053,0.572807,1312078,0.750777,998005,0.571063,629332,0.360107
158593.750000,406,0x00001F,1001145,0.572860,1312076,0.750776,998008,0.571065,629373,0.360130
158984.375000,407,0x00001F,1000841,0.572686,1311909,0.750680,997925,0.571017,629314,0.360096
159375.000000,408,0x00001F,1001149,0.572862,1312053,0.750763,998098,0.571116,629449,0.360174
159765.625000,409,0x00001F,1001012,0.572784,1312282,0.750894,997919,0.571014,629399,0.360145
160156.250000,410,0x00001F,1001064,0.572813,1312002,0.750734,997909,0.571008,629376,0.360132
160546.875000,411,0x00001F,1001152,0.572864,1312205,0.750850,997915,0.571012,629416,0.360155
160937.500000,412,0x00001F,1001127,0.572850,1312147,0.750817,998038,0.571082,629339,0.360111
161328.125000,413,0x00001F,1001024,0.572791,1311988,0.750726,998054,0.571091,629247,0.360058
161718.750000,414,0x00001F,1001065,0.572814,1312273,0.750889,997975,0.571046,629335,0.360108
162109.375000,415,0x00001F,1001088,0.572827,1312081,0.750779,997883,0.570993,629354,0.360119
162500.000000,416,0x00001F,1001267,0.572930,1312119,0.750801,997883,0.570993,629157,0.360007
162890.625000,417,0x00001F,1001156,0.572866,1312066,0.750770,997976,0.571046,629569,0.360242
163281.250000,418,0x00001F,1001154,0.572865,1311951,0.750704,997643,0.570856,629378,0.360133
163671.875000,419,0x00001F,1001180,0.572880,1312043,0.750757,998064,0.571097,629508,0.360207
164062.500000,420,0x00001F,1001184,0.572882,1312034,0.750752,997839,0.570968,629488,0.360196
164453.125000,421,0x00001F,1001321,0.572960,1312123,0.750803,997935,0.571023,629547,0.360230
164843.750000,422,0x00001F,1001080,0.572823,1312057,0.750765,997919,0.571014,629355,0.360120
165234.375000,423,0x00001F,1000967,0.572758,1312044,0.750758,997903,0.571005,629370,0.360128
165625.000000,424,0x00001F,1001246,0.572918,1312136,0.750810,997855,0.570977,629414,0.360154
166015.625000,425,0x00001F,1001168,0.572873,1312119,0.750801,998049,0.571088,629449,0.360174
166406.250000,426,0x00001F,1001022,0.572789,1311795,0.750615,998197,0.571173,629312,0.360095
166796.875000,427,0x00001F,1001082,0.572824,1312082,0.750779,997972,0.571044,629347,0.360115
167187.500000,428,0x00001F,1001133,0.572853,1312087,0.750782,998058,0.571093,629590,0.360254
167578.125000,429,0x00001F,1001059,0.572811,1311984,0.750723,997853,0.570976,629332,0.360107
167968.750000,430,0x00001F,1001109,0.572839,1312075,0.750775,998073,0.571102,629427,0.360161
168359.375000,431,0x00001F,1001121,0.572846,1312109,0.750795,998079,0.571105,629361,0.360123
168750.000000,432,0x00001F,1001011,0.572783,1312051,0.750762,997967,0.571041,629381,0.360135
169140.625000,433,0x00001F,1001071,0.572817,1312118,0.750800,997978,0.571048,629346,0.360115
169531.250000,434,0x00001F,1000913,0.572727,1312046,0.750759,997981,0.571049,629410,0.360151
169921.875000,435,0x00001F,1001110,0.572840,1312010,0.750738,998037,0.571081,629311,0.360095
170312.500000,436,0x00001F,1001376,0.572992,1311975,0.750718,997966,0.571041,629357,0.360121
170703.125000,437,0x00001F,1001156,0.572866,1312048,0.750760,997905,0.571006,629387,0.360138
171093.750000,438,0x00001F,1001135,0.572854,1311999,0.750732,998078,0.571105,629306,0.360092
171484.375000,439,0x00001F,1001200,0.572891,1311996,0.750730,997720,0.570900,629318,0.360099
171875.000000,440,0x00001F,1001147,0.572861,1312115,0.750798,997945,0.571029,629359,0.360122
172265.625000,441,0x00001F,1001219,0.572902,1312061,0.750767,997993,0.571056,629438,0.360167
172656.250000,442,0x00001F,1001280,0.572937,1312078,0.750777,997788,0.570939,629403,0.360147
173046.875000,443,0x00001F,1001016,0.572786,1312004,0.750735,997921,0.571015,629216,0.360040
173437.500000,444,0x00001F,1001104,0.572836,1312058,0.750766,997952,0.571033,629418,0.360156
173828.125000,445,0x00001F,1001065,0.572814,1311995,0.750730,997934,0.571022,629449,0.360174
174218.750000,446,0x00001F,1000888,0.572713,1312072,0.750774,997845,0.570971,629534,0.360222
174609.375000,447,0x00001F,1001136,0.572855,1312163,0.750826,997944,0.571028,629295,0.360085
175000.000000,448,0x00001F,1001355,0.572980,1311841,0.750641,997823,0.570959,629556,0.360235
175390.625000,449,0x00001F,1001206,0.572895,1311975,0.750718,997944,0.571028,629465,0.360183
175781.250000,450,0x00001F,1001133,0.572853,1312085,0.750781,998007,0.571064,629484,0.360194
176171.875000,451,0x00001F,1001167,0.572872,1312083,0.750780,997992,0.571056,629511,0.360209
176562.500000,452,0x00001F,1001009,0.572782,1311980,0.750721,997963,0.571039,629367,0.360127
176953.125000,453,0x00001F,1001108,0.572839,1312271,0.750888,997747,0.570915,629311,0.360095
177343.750000,454,0x00001F,1001147,0.572861,1311905,0.750678,997933,0.571022,629370,0.360128
177734.375000,455,0x00001F,1001190,0.572886,1312108,0.750794,997869,0.570985,629461,0.360180
178125.000000,456,0x00001F,1000991,0.572772,1311952,0.750705,997998,0.571059,629356,0.360120
178515.625000,457,0x00001F,1001226,0.572906,1312011,0.750739,997783,0.570936,629337,0.360110
178906.250000,458,0x00001F,1001268,0.572930,1311968,0.750714,998011,0.571066,629437,0.360167
179296.875000,459,0x00001F,1001182,0.572881,1312070,0.750773,998214,0.571183,629332,0.360107
179687.500000,460,0x00001F,1001202,0.572892,1312052,0.750762,997925,0.571017,629369,0.360128
180078.125000,461,0x00001F,1001177,0.572878,1312155,0.750821,997901,0.571004,629402,0.360147
180468.750000,462,0x00001F,1001163,0.572870,1312064,0.750769,998046,0.571087,629406,0.360149
180859.375000,463,0x00001F,1001066,0.572815,1312113,0.750797,997939,0.571025,629398,0.360144
181250.000000,464,0x00001F,1001152,0.572864,1311986,0.750724,998084,0.571108,629477,0.360190
181640.625000,465,0x00001F,1000977,0.572764,1312205,0.750850,997947,0.571030,629382,0.360135
182031.250000,466,0x00001F,1001244,0.572916,1312089,0.750783,997985,0.571052,629307,0.360092
182421.875000,467,0x00001F,1001146,0.572860,1312005,0.750735,997983,0.571050,629601,0.360261
182812.500000,468,0x00001F,1001332,0.572967,1312034,0.750752,997984,0.571051,629495,0.360200
183203.125000,469,0x00001F,1001130,0.572851,1312008,0.750737,998035,0.571080,629394,0.360142
183593.750000,470,0x00001F,1001118,0.572844,1311955,0.750707,997890,0.570997,629285,0.360080
183984.375000,471,0x00001F,1001004,0.572779,1312094,0.750786,997894,0.571000,629443,0.360170
184375.000000,472,0x00001F,1001136,0.572855,1312107,0.750794,997990,0.571054,629365,0.360126
184765.625000,473,0x00001F,1001303,0.572950,1311958,0.750708,997888,0.570996,629423,0.360159
185156.250000,474,0x00001F,1001109,0.572839,1312088,0.750783,998050,0.571089,629345,0.360114
185546.875000,475,0x00001F,1001128,0.572850,1312057,0.750765,997959,0.571037,629387,0.360138
185937.500000,476,0x00001F,1001162,0.572870,1312127,0.750805,997981,0.571049,629365,0.360126
186328.125000,477,0x00001F,1001282,0.572938,1312199,0.750846,997921,0.571015,629433,0.360164
186718.750000,478,0x00001F,1001112,0.572841,1311961,0.750710,997971,0.571044,629365,0.360126
187109.375000,479,0x00001F,1001212,0.572898,1312001,0.750733,997813,0.570953,629500,0.360203
187500.000000,480,0x00001F,1001050,0.572805,1312093,0.750786,997903,0.571005,629355,0.360120
187890.625000,481,0x00001F,1001139,0.572856,1311982,0.750722,997918,0.571013,629445,0.360171
188281.250000,482,0x00001F,1001117,0.572844,1312017,0.750742,997877,0.570990,629459,0.360179
188671.875000,483,0x00001F,1001131,0.572852,1312070,0.750773,998011,0.571066,629421,0.360158
189062.500000,484,0x00001F,1000947,0.572747,1312055,0.750764,997968,0.571042,629301,0.360089
189453.125000,485,0x00001F,1001066,0.572815,1312184,0.750838,997890,0.570997,629394,0.360142
189843.750000,486,0x00001F,1001225,0.572906,1312223,0.750860,997707,0.570893,629313,0.360096
190234.375000,487,0x00001F,1001101,0.572835,1312126,0.750805,998088,0.571111,629430,0.360163
190625.000000,488,0x00001F,1001011,0.572783,1312170,0.750830,998092,0.571113,629700,0.360317
191015.625000,489,0x00001F,1001052,0.572807,1312060,0.750767,997928,0.571019,629353,0.360119
191406.250000,490,0x00001F,1000995,0.572774,1312069,0.750772,998017,0.571070,629363,0.360124
191796.875000,491,0x00001F,1001276,0.572935,1312080,0.750778,997922,0.571016,629568,0.360242
192187.500000,492,0x00001F,1000937,0.572741,1312102,0.750791,997957,0.571036,629458,0.360179
192578.125000,493,0x00001F,1001007,0.572781,1312068,0.750771,997895,0.571000,629470,0.360186
192968.750000,494,0x00001F,1001109,0.572839,1312006,0.750736,997975,0.571046,629244,0.360056
193359.375000,495,0x00001F,1001125,0.572848,1312089,0.750783,997930,0.571020,629277,0.360075
193750.000000,496,0x00001F,1001099,0.572833,1312158,0.750823,997929,0.571020,629429,0.360162
194140.625000,497,0x00001F,1001153,0.572864,1311988,0.750726,998041,0.571084,629287,0.360081
194531.250000,498,0x00001F,1001240,0.572914,1312131,0.750807,997840,0.570969,629400,0.360146
194921.875000,499,0x00001F,1001255,0.572923,1311975,0.750718,998051,0.571089,629321,0.360100
195312.500000,500,0x00001F,1000967,0.572758,1311984,0.750723,998027,0.571076,629532,0.360221
195703.125000,501,0x00001F,1001124,0.572848,1311997,0.750731,998109,0.571123,629381,0.360135
196093.750000,502,0x00001F,1001062,0.572812,1312208,0.750851,998121,0.571129,629316,0.360098
196484.375000,503,0x00001F,1001104,0.572836,1312068,0.750771,997955,0.571034,629428,0.360162
196875.000000,504,0x00001F,1001055,0.572808,1312042,0.750757,997964,0.571040,629520,0.360214
197265.625000,505,0x00001F,1000917,0.572729,1312047,0.750759,997857,0.570978,629498,0.360202
197656.250000,506,0x00001F,1001085,0.572825,1312015,0.750741,998007,0.571064,629348,0.360116
198046.875000,507,0x00001F,1001093,0.572830,1312029,0.750749,997950,0.571032,629474,0.360188
198437.500000,508,0x00001F,1001019,0.572788,1311998,0.750731,997949,0.571031,629426,0.360160
198828.125000,509,0x00001F,1001042,0.572801,1312118,0.750800,997983,0.571050,629406,0.360149
199218.750000,510,0x00001F,1001036,0.572797,1312105,0.750793,998079,0.571105,629329,0.360105
199609.375000,511,0x00001F,1001188,0.572884,1312053,0.750763,997816,0.570955,629552,0.360233
200000.000000,512,0x00001F,1001081,0.572823,1312005,0.750735,997964,0.571040,629325,0.360103
200390.625000,513,0x00001F,1001001,0.572777,1312049,0.750760,997876,0.570989,629553,0.360233
200781.250000,514,0x00001F,1001044,0.572802,1312093,0.750786,997993,0.571056,629303,0.360090
201171.875000,515,0x00001F,1001043,0.572801,1312119,0.750801,997909,0.571008,629382,0.360135
201562.500000,516,0x00001F,1001177,0.572878,1312054,0.750763,997927,0.571018,629227,0.360047
201953.125000,517,0x00001F,1001068,0.572816,1312098,0.750789,997875,0.570989,629534,0.360222
202343.750000,518,0x00001F,1001220,0.572903,1312198,0.750846,998127,0.571133,629379,0.360134
202734.375000,519,0x00001F,1001148,0.572861,1312043,0.750757,997988,0.571053,629425,0.360160
203125.000000,520,0x00001F,1001214,0.572899,1312089,0.750783,997941,0.571026,629475,0.360188
203515.625000,521,0x00001F,1001272,0.572932,1312025,0.750747,997965,0.571040,629206,0.360035
203906.250000,522,0x00001F,1001158,0.572867,1312081,0.750779,997915,0.571012,629421,0.360158
204296.875000,523,0x00001F,1001119,0.572845,1312050,0.750761,997750,0.570917,629384,0.360136
204687.500000,524,0x00001F,1001118,0.572844,1312112,0.750797,997954,0.571034,629308,0.360093
205078.125000,525,0x00001F,1000983,0.572767,1312003,0.750734,998004,0.571063,629389,0.360139
205468.750000,526,0x00001F,1000992,0.572772,1311982,0.750722,997969,0.571042,629441,0.360169
205859.375000,527,0x00001F,1001105,0.572837,1312094,0.750786,998073,0.571102,629473,0.360187
206250.000000,528,0x00001F,1001099,0.572833,1311945,0.750701,998026,0.571075,629301,0.360089
206640.625000,529,0x00001F,1001146,0.572860,1312023,0.750746,998008,0.571065,629369,0.360128
207031.250000,530,0x00001F,1001121,0.572846,1312110,0.750795,997847,0.570973,629464,0.360182
207421.875000,531,0x00001F,1000979,0.572765,1312017,0.750742,997894,0.571000,629345,0.360114
207812.500000,532,0x00001F,1001135,0.572854,1312093,0.750786,998052,0.571090,629383,0.360136
208203.125000,533,0x00001F,1000971,0.572760,1312013,0.750740,997988,0.571053,629239,0.360053
208593.750000,534,0x00001F,1001138,0.572856,1312077,0.750777,997948,0.571030,629188,0.360024
208984.375000,535,0x00001F,1001105,0.572837,1311971,0.750716,997864,0.570982,629358,0.360122
209375.000000,536,0x00001F,1000862,0.572698,1312160,0.750824,997883,0.570993,629345,0.360114
209765.625000,537,0x00001F,1001039,0.572799,1312029,0.750749,997993,0.571056,629415,0.360154
210156.250000,538,0x00001F,1001209,0.572896,1312178,0.750834,998001,0.571061,629303,0.360090
210546.875000,539,0x00001F,1001134,0.572854,1312082,0.750779,997906,0.571006,629312,0.360095
210937.500000,540,0x00001F,1001109,0.572839,1312167,0.750828,997876,0.570989,629377,0.360132
211328.125000,541,0x00001F,1001102,0.572835,1312065,0.750770,997844,0.570971,629381,0.360135
211718.750000,542,0x00001F,1001029,0.572793,1312099,0.750789,997801,0.570946,629448,0.360173
212109.375000,543,0x00001F,1001189,0.572885,1312136,0.750810,997978,0.571048,629590,0.360254
212500.000000,544,0x00001F,1001131,0.572852,1311940,0.750698,998006,0.571064,629512,0.360210
212890.625000,545,0x00001F,1001134,0.572854,1312022,0.750745,998025,0.571074,629431,0.360163
213281.250000,546,0x00001F,1001137,0.572855,1312159,0.750823,997854,0.570977,629475,0.360188
213671.875000,547,0x00001F,1001206,0.572895,1312022,0.750745,997943,0.571028,629327,0.360104
214062.500000,548,0x00001F,1001427,0.573021,1312007,0.750736,997955,0.571034,629431,0.360163
214453.125000,549,0x00001F,1001204,0.572894,1312075,0.750775,998072,0.571101,629386,0.360138
214843.750000,550,0x00001F,1001025,0.572791,1311990,0.750727,997990,0.571054,629389,0.360139
215234.375000,551,0x00001F,1001099,0.572833,1311853,0.750648,997869,0.570985,629302,0.360090
215625.000000,552,0x00001F,1001068,0.572816,1312056,0.750764,997968,0.571042,629471,0.360186
216015.625000,553,0x00001F,1001197,0.572890,1311891,0.750670,998110,0.571123,629378,0.360133
216406.250000,554,0x00001F,1001113,0.572841,1312128,0.750806,997854,0.570977,629389,0.360139
216796.875000,555,0x00001F,1001217,0.572901,1311996,0.750730,997963,0.571039,629406,0.360149
217187.500000,556,0x00001F,1001105,0.572837,1311944,0.750700,998072,0.571101,629487,0.360195
217578.125000,557,0x00001F,1000973,0.572761,1311796,0.750616,997859,0.570980,629422,0.360158
217968.750000,558,0x00001F,1001029,0.572793,1312120,0.750801,997992,0.571056,629539,0.360225
218359.375000,559,0x00001F,1001062,0.572812,1312223,0.750860,997863,0.570982,629429,0.360162
218750.000000,560,0x00001F,1001336,0.572969,1312099,0.750789,997927,0.571018,629315,0.360097
219140.625000,561,0x00001F,1001165,0.572871,1312021,0.750744,997951,0.571032,629404,0.360148
219531.250000,562,0x00001F,1001087,0.572827,1312002,0.750734,998079,0.571105,629393,0.360142
219921.875000,563,0x00001F,1001078,0.572821,1312149,0.750818,997873,0.570988,629400,0.360146
220312.500000,564,0x00001F,1001112,0.572841,1312170,0.750830,997807,0.570950,629235,0.360051
220703.125000,565,0x00001F,1001081,0.572823,1312148,0.750817,997977,0.571047,629401,0.360146
221093.750000,566,0x00001F,1001092,0.572829,1312156,0.750822,997957,0.571036,629456,0.360178
221484.375000,567,0x00001F,1001116,0.572843,1312069,0.750772,998067,0.571099,629394,0.360142
221875.000000,568,0x00001F,1001002,0.572778,1312137,0.750811,998033,0.571079,629347,0.360115
222265.625000,569,0x00001F,1001052,0.572807,1311876,0.750661,997978,0.571048,629411,0.360152
222656.250000,570,0x00001F,1001253,0.572922,1312273,0.750889,998058,0.571093,629442,0.360170
223046.875000,571,0x00001F,1001073,0.572819,1312080,0.750778,998124,0.571131,629382,0.360135
223437.500000,572,0x00001F,1001194,0.572888,1312082,0.750779,997994,0.571057,629337,0.360110
223828.125000,573,0x00001F,1001233,0.572910,1312237,0.750868,997881,0.570992,629384,0.360136
224218.750000,574,0x00001F,1001143,0.572859,1312277,0.750891,997955,0.571034,629512,0.360210
224609.375000,575,0x00001F,1001026,0.572792,1312068,0.750771,997901,0.571004,629492,0.360198
225000.000000,576,0x00001F,1001035,0.572797,1312124,0.750803,998099,0.571117,629435,0.360166
225390.625000,577,0x00001F,1001030,0.572794,1312173,0.750831,998024,0.571074,629400,0.360146
225781.250000,578,0x00001F,1001050,0.572805,1312076,0.750776,998164,0.571154,629433,0.360164
226171.875000,579,0x00001F,1001106,0.572837,1312167,0.750828,997843,0.570970,629332,0.360107
226562.500000,580,0x00001F,1001013,0.572784,1312050,0.750761,997996,0.571058,629328,0.360104
226953.125000,581,0x00001F,1001065,0.572814,1312041,0.750756,998134,0.571137,629445,0.360171
227343.750000,582,0x00001F,1001129,0.572851,1312123,0.750803,997881,0.570992,629446,0.360172
227734.375000,583,0x00001F,1001110,0.572840,1312021,0.750744,998110,0.571123,629289,0.360082
228125.000000,584,0x00001F,1001201,0.572892,1312208,0.750851,997842,0.570970,629341,0.360112
228515.625000,585,0x00001F,1001206,0.572895,1311991,0.750727,997960,0.571037,629341,0.360112
228906.250000,586,0x00001F,1001121,0.572846,1311986,0.750724,997891,0.570998,629261,0.360066
229296.875000,587,0x00001F,1001116,0.572843,1312080,0.750778,998050,0.571089,629498,0.360202
229687.500000,588,0x00001F,1000917,0.572729,1312046,0.750759,997986,0.571052,629122,0.359987
230078.125000,589,0x00001F,1001142,0.572858,1312001,0.750733,997941,0.571026,629422,0.360158
230468.750000,590,0x00001F,1001128,0.572850,1312132,0.750808,997827,0.570961,629451,0.360175
230859.375000,591,0x00001F,1001167,0.572872,1312056,0.750764,997842,0.570970,629508,0.360207
231250.000000,592,0x00001F,1001043,0.572801,1312081,0.750779,997880,0.570992,629463,0.360182
231640.625000,593,0x00001F,1001110,0.572840,1312007,0.750736,997987,0.571053,629397,0.360144
232031.250000,594,0x00001F,1001160,0.572868,1311992,0.750728,998025,0.571074,629491,0.360198
232421.875000,595,0x00001F,1001024,0.572791,1312043,0.750757,997974,0.571045,629274,0.360073
232812.500000,596,0x00001F,1001036,0.572797,1312146,0.750816,997864,0.570982,629449,0.360174
233203.125000,597,0x00001F,1001272,0.572932,1312025,0.750747,997900,0.571003,629391,0.360140
233593.750000,598,0x00001F,1001168,0.572873,1312036,0.750753,998064,0.571097,629602,0.360261
233984.375000,599,0x00001F,1001156,0.572866,1312115,0.750798,998033,0.571079,629452,0.360175
234375.000000,600,0x00001F,1000986,0.572769,1312243,0.750871,998096,0.571115,629348,0.360116
234765.625000,601,0x00001F,1001170,0.572874,1311982,0.750722,997951,0.571032,629377,0.360132
235156.250000,602,0x00001F,1001355,0.572980,1312235,0.750867,998093,0.571113,629398,0.360144
235546.875000,603,0x00001F,1001134,0.572854,1312058,0.750766,998002,0.571061,629583,0.360250
235937.500000,604,0x00001F,1001363,0.572985,1311983,0.750723,997868,0.570985,629461,0.360180
236328.125000,605,0x00001F,1001153,0.572864,1312171,0.750830,997942,0.571027,629398,0.360144
236718.750000,606,0x00001F,1000984,0.572768,1312025,0.750747,998120,0.571129,629240,0.360054
237109.375000,607,0x00001F,1001083,0.572824,1312016,0.750742,998009,0.571065,629393,0.360142
237500.000000,608,0x00001F,1001113,0.572841,1312092,0.750785,998011,0.571066,629358,0.360122
237890.625000,609,0x00001F,1001131,0.572852,1311961,0.750710,997949,0.571031,629356,0.360120
238281.250000,610,0x00001F,1001078,0.572821,1311882,0.750665,997971,0.571044,629382,0.360135
238671.875000,611,0x00001F,1001169,0.572874,1312010,0.750738,998079,0.571105,629349,0.360116
239062.500000,612,0x00001F,1000945,0.572745,1311971,0.750716,998009,0.571065,629421,0.360158
239453.125000,613,0x00001F,1000985,0.572768,1312118,0.750800,997941,0.571026,629267,0.360069
239843.750000,614,0x00001F,1001042,0.572801,1311992,0.750728,998022,0.571073,629323,0.360102
240234.375000,615,0x00001F,1001017,0.572787,1312191,0.750842,998046,0.571087,629383,0.360136
240625.000000,616,0x00001F,1001086,0.572826,1312126,0.750805,997990,0.571054,629332,0.360107
241015.625000,617,0x00001F,1001228,0.572907,1312137,0.750811,997832,0.570964,629381,0.360135
241406.250000,618,0x00001F,1001152,0.572864,1312102,0.750791,998021,0.571072,629309,0.360094
241796.875000,619,0x00001F,1001103,0.572836,1311885,0.750667,997949,0.571031,629449,0.360174
242187.500000,620,0x00001F,1001069,0.572816,1312043,0.750757,997886,0.570995,629260,0.360065
242578.125000,621,0x00001F,1000897,0.572718,1312223,0.750860,997828,0.570962,629351,0.360118
242968.750000,622,0x00001F,1001232,0.572910,1312107,0.750794,997975,0.571046,629358,0.360122
243359.375000,623,0x00001F,1001086,0.572826,1311975,0.750718,998066,0.571098,629563,0.360239
243750.000000,624,0x00001F,1001070,0.572817,1312080,0.750778,998001,0.571061,629330,0.360106
244140.625000,625,0x00001F,1001111,0.572840,1312184,0.750838,997978,0.571048,629393,0.360142
244531.250000,626,0x00001F,1001300,0.572948,1312059,0.750766,997936,0.571024,629392,0.360141
244921.875000,627,0x00001F,1001187,0.572884,1312085,0.750781,997891,0.570998,629380,0.360134
245312.500000,628,0x00001F,1001265,0.572928,1312112,0.750797,998004,0.571063,629398,0.360144
245703.125000,629,0x00001F,1000994,0.572773,1312068,0.750771,997945,0.571029,629672,0.360301
246093.750000,630,0x00001F,1001024,0.572791,1312103,0.750791,997963,0.571039,629502,0.360204
246484.375000,631,0x00001F,1001105,0.572837,1312101,0.750790,998202,0.571176,629449,0.360174
246875.000000,632,0x00001F,1000994,0.572773,1312005,0.750735,998006,0.571064,629587,0.360253
247265.625000,633,0x00001F,1001015,0.572785,1312239,0.750869,997989,0.571054,629697,0.360316
247656.250000,634,0x00001F,1001131,0.572852,1312047,0.750759,998037,0.571081,629508,0.360207
248046.875000,635,0x00001F,1001157,0.572867,1312027,0.750748,997919,0.571014,629495,0.360200
248437.500000,636,0x00001F,1001104,0.572836,1312110,0.750795,998029,0.571077,629367,0.360127
248828.125000,637,0x00001F,1001142,0.572858,1312168,0.750829,998038,0.571082,629372,0.360130
249218.750000,638,0x00001F,1001115,0.572843,1311920,0.750687,997796,0.570943,629298,0.360087
249609.375000,639,0x00001F,1001100,0.572834,1312017,0.750742,997928,0.571019,629407,0.360150
250000.000000,640,0x00001F,1001022,0.572789,1312122,0.750802,998080,0.571106,629559,0.360237
250390.625000,641,0x00001F,1001264,0.572928,1312065,0.750770,997987,0.571053,629335,0.360108
250781.250000,642,0x00001F,1001109,0.572839,1312130,0.750807,997862,0.570981,629290,0.360083
251171.875000,643,0x00001F,1001026,0.572792,1311981,0.750722,998122,0.571130,629396,0.360143
251562.500000,644,0x00001F,1001061,0.572812,1312111,0.750796,997988,0.571053,629412,0.360152
251953.125000,645,0x00001F,1001152,0.572864,1312121,0.750802,997984,0.571051,629324,0.360102
252343.750000,646,0x00001F,1001008,0.572781,1312124,0.750803,997832,0.570964,629371,0.360129
252734.375000,647,0x00001F,1001127,0.572850,1312150,0.750818,997964,0.571040,629375,0.360131
253125.000000,648,0x00001F,1001011,0.572783,1312157,0.750822,997864,0.570982,629360,0.360123
253515.625000,649,0x00001F,1001119,0.572845,1312153,0.750820,997983,0.571050,629358,0.360122
253906.250000,650,0x00001F,1001088,0.572827,1312034,0.750752,997928,0.571019,629390,0.360140
254296.875000,651,0x00001F,1001119,0.572845,1311886,0.750667,998026,0.571075,629372,0.360130
254687.500000,652,0x00001F,1001023,0.572790,1312320,0.750916,997904,0.571005,629402,0.360147
255078.125000,653,0x00001F,1001142,0.572858,1312157,0.750822,997715,0.570897,629346,0.360115
255468.750000,654,0x00001F,1001143,0.572859,1312041,0.750756,997939,0.571025,629516,0.360212
255859.375000,655,0x00001F,1001138,0.572856,1312092,0.750785,997982,0.571050,629472,0.360187
256250.000000,656,0x00001F,1001131,0.572852,1311994,0.750729,997904,0.571005,629414,0.360154
256640.625000,657,0x00001F,1001078,0.572821,1312007,0.750736,997874,0.570988,629097,0.359972
257031.250000,658,0x00001F,1000932,0.572738,1312049,0.750760,997994,0.571057,629382,0.360135
257421.875000,659,0x00001F,1001112,0.572841,1312009,0.750738,997965,0.571040,629350,0.360117
257812.500000,660,0x00001F,1001118,0.572844,1312085,0.750781,998002,0.571061,629559,0.360237
258203.125000,661,0x00001F,1001120,0.572845,1312042,0.750757,998036,0.571081,629412,0.360152
258593.750000,662,0x00001F,1001046,0.572803,1312065,0.750770,997923,0.571016,629350,0.360117
258984.375000,663,0x00001F,1000981,0.572766,1312037,0.750754,997814,0.570954,629480,0.360191
259375.000000,664,0x00001F,1001089,0.572828,1312065,0.750770,998050,0.571089,629411,0.360152
259765.625000,665,0x00001F,1001071,0.572817,1312021,0.750744,997883,0.570993,629251,0.360060
260156.250000,666,0x00001F,1001008,0.572781,1312133,0.750809,998011,0.571066,629450,0.360174
260546.875000,667,0x00001F,1001133,0.572853,1312106,0.750793,997919,0.571014,629446,0.360172
260937.500000,668,0x00001F,1000997,0.572775,1312023,0.750746,998006,0.571064,629402,0.360147
261328.125000,669,0x00001F,1000899,0.572719,1312071,0.750773,997893,0.570999,629380,0.360134
261718.750000,670,0x00001F,1001087,0.572827,1312097,0.750788,997862,0.570981,629409,0.360151
262109.375000,671,0x00001F,1000857,0.572695,1312027,0.750748,998014,0.571068,629478,0.360190
262500.000000,672,0x00001F,1001053,0.572807,1312038,0.750754,998030,0.571077,629453,0.360176
262890.625000,673,0x00001F,1001158,0.572867,1312074,0.750775,997993,0.571056,629434,0.360165
263281.250000,674,0x00001F,1001044,0.572802,1311988,0.750726,998037,0.571081,629230,0.360048
263671.875000,675,0x00001F,1001129,0.572851,1311975,0.750718,997938,0.571025,629369,0.360128
264062.500000,676,0x00001F,1001128,0.572850,1312042,0.750757,997847,0.570973,629375,0.360131
264453.125000,677,0x00001F,1001100,0.572834,1312071,0.750773,998014,0.571068,629429,0.360162
264843.750000,678,0x00001F,1001164,0.572871,1312041,0.750756,997940,0.571026,629346,0.360115
265234.375000,679,0x00001F,1001229,0.572908,1312128,0.750806,997910,0.571009,629475,0.360188
265625.000000,680,0x00001F,1001127,0.572850,1312005,0.750735,998012,0.571067,629448,0.360173
266015.625000,681,0x00001F,1001037,0.572798,1312147,0.750817,997812,0.570953,629396,0.360143
266406.250000,682,0x00001F,1001246,0.572918,1312151,0.750819,998068,0.571099,629379,0.360134
266796.875000,683,0x00001F,1001032,0.572795,1312093,0.750786,998017,0.571070,629401,0.360146
267187.500000,684,0x00001F,1001182,0.572881,1312220,0.750858,998055,0.571092,629344,0.360114
267578.125000,685,0x00001F,1001149,0.572862,1312050,0.750761,997960,0.571037,629412,0.360152
267968.750000,686,0x00001F,1001093,0.572830,1312090,0.750784,998008,0.571065,629361,0.360123
268359.375000,687,0x00001F,1001147,0.572861,1312178,0.750834,998058,0.571093,629472,0.360187
268750.000000,688,0x00001F,1001115,0.572843,1312100,0.750790,997855,0.570977,629266,0.360069
269140.625000,689,0x00001F,1000986,0.572769,1312020,0.750744,997900,0.571003,629400,0.360146
269531.250000,690,0x00001F,1001140,0.572857,1312195,0.750844,997959,0.571037,629385,0.360137
269921.875000,691,0x00001F,1001317,0.572958,1312046,0.750759,997996,0.571058,629499,0.360202
270312.500000,692,0x00001F,1001005,0.572780,1312030,0.750750,998111,0.571124,629390,0.360140
270703.125000,693,0x00001F,1001287,0.572941,1312025,0.750747,997974,0.571045,629440,0.360168
271093.750000,694,0x00001F,1001169,0.572874,1312061,0.750767,997970,0.571043,629401,0.360146
271484.375000,695,0x00001F,1001036,0.572797,1312153,0.750820,998155,0.571149,629456,0.360178
271875.000000,696,0x00001F,1001140,0.572857,1312117,0.750799,998078,0.571105,629354,0.360119
272265.625000,697,0x00001F,1001113,0.572841,1312130,0.750807,997840,0.570969,629366,0.360126
272656.250000,698,0x00001F,1001018,0.572787,1311938,0.750697,997856,0.570978,629554,0.360234
273046.875000,699,0x00001F,1001052,0.572807,1312049,0.750760,998052,0.571090,629304,0.360091
273437.500000,700,0x00001F,1001132,0.572852,1311944,0.750700,998044,0.571085,629298,0.360087
273828.125000,701,0x00001F,1001003,0.572779,1312155,0.750821,997953,0.571033,629388,0.360139
274218.750000,702,0x00001F,1001043,0.572801,1312149,0.750818,997880,0.570992,629234,0.360051
274609.375000,703,0x00001F,1001163,0.572870,1312172,0.750831,997961,0.571038,629319,0.360099
275000.000000,704,0x00001F,1001152,0.572864,1311952,0.750705,997863,0.570982,629509,0.360208
275390.625000,705,0x00001F,1000990,0.572771,1312105,0.750793,998047,0.571087,629365,0.360126
275781.250000,706,0x00001F,1001122,0.572847,1312084,0.750781,997980,0.571049,629508,0.360207
276171.875000,707,0x00001F,1001049,0.572805,1311927,0.750691,997870,0.570986,629396,0.360143
276562.500000,708,0x00001F,1001024,0.572791,1312248,0.750874,997983,0.571050,629326,0.360103
276953.125000,709,0x00001F,1001105,0.572837,1312080,0.750778,998068,0.571099,629369,0.360128
277343.750000,710,0x00001F,1000994,0.572773,1312117,0.750799,997951,0.571032,629490,0.360197
277734.375000,711,0x00001F,1001091,0.572829,1311991,0.750727,997974,0.571045,629451,0.360175
278125.000000,712,0x00001F,1001081,0.572823,1311986,0.750724,998104,0.571120,629397,0.360144
278515.625000,713,0x00001F,1001111,0.572840,1312104,0.750792,997886,0.570995,629392,0.360141
278906.250000,714,0x00001F,1001049,0.572805,1312283,0.750894,998036,0.571081,629317,0.360098
279296.875000,715,0x00001F,1001157,0.572867,1312061,0.750767,997955,0.571034,629267,0.360069
279687.500000,716,0x00001F,1001067,0.572815,1312088,0.750783,997952,0.571033,629507,0.360207
280078.125000,717,0x00001F,1001090,0.572828,1311945,0.750701,997981,0.571049,629494,0.360199
280468.750000,718,0x00001F,1000945,0.572745,1312032,0.750751,997946,0.571029,629397,0.360144
280859.375000,719,0x00001F,1000788,0.572655,1312103,0.750791,997941,0.571026,629196,0.360029
281250.000000,720,0x00001F,1001008,0.572781,1312133,0.750809,997979,0.571048,629389,0.360139
281640.625000,721,0x00001F,1001061,0.572812,1312066,0.750770,997959,0.571037,629317,0.360098
282031.250000,722,0x00001F,1001176,0.572878,1312097,0.750788,997894,0.571000,629442,0.360170
282421.875000,723,0x00001F,1001054,0.572808,1312193,0.750843,997789,0.570939,629429,0.360162
282812.500000,724,0x00001F,1000819,0.572673,1312055,0.750764,997829,0.570962,629362,0.360124
283203.125000,725,0x00001F,1001176,0.572878,1311959,0.750709,997914,0.571011,629404,0.360148
283593.750000,726,0x00001F,1001011,0.572783,1311977,0.750719,998027,0.571076,629430,0.360163
283984.375000,727,0x00001F,1001097,0.572832,1312149,0.750818,998054,0.571091,629357,0.360121
284375.000000,728,0x00001F,1001114,0.572842,1312057,0.750765,997674,0.570874,629408,0.360150
284765.625000,729,0x00001F,1001071,0.572817,1312113,0.750797,997919,0.571014,629520,0.360214
285156.250000,730,0x00001F,1001078,0.572821,1312099,0.750789,997965,0.571040,629388,0.360139
285546.875000,731,0x00001F,1001174,0.572876,1312187,0.750839,998021,0.571072,629517,0.360213
285937.500000,732,0x00001F,1001211,0.572898,1312173,0.750831,997870,0.570986,629548,0.360230
286328.125000,733,0x00001F,1001105,0.572837,1312180,0.750835,997840,0.570969,629358,0.360122
286718.750000,734,0x00001F,1001024,0.572791,1312038,0.750754,998095,0.571115,629458,0.360179
287109.375000,735,0x00001F,1001223,0.572904,1311985,0.750724,997870,0.570986,629440,0.360168
287500.000000,736,0x00001F,1000952,0.572749,1311973,0.750717,998008,0.571065,629512,0.360210
287890.625000,737,0x00001F,1001120,0.572845,1311993,0.750728,998096,0.571115,629548,0.360230
288281.250000,738,0x00001F,1001137,0.572855,1311948,0.750703,997998,0.571059,629358,0.360122
288671.875000,739,0x00001F,1001037,0.572798,1312087,0.750782,997956,0.571035,629402,0.360147
289062.500000,740,0x00001F,1001069,0.572816,1312099,0.750789,997788,0.570939,629323,0.360102
289453.125000,741,0x00001F,1001222,0.572904,1312240,0.750870,997845,0.570971,629348,0.360116
289843.750000,742,0x00001F,1001077,0.572821,1312022,0.750745,998195,0.571172,629365,0.360126
290234.375000,743,0x00001F,1000989,0.572771,1311951,0.750704,998035,0.571080,629241,0.360055
290625.000000,744,0x00001F,1001096,0.572832,1312003,0.750734,997882,0.570993,629344,0.360114
291015.625000,745,0x00001F,1001173,0.572876,1312123,0.750803,997895,0.571000,629408,0.360150
291406.250000,746,0x00001F,1001206,0.572895,1312143,0.750814,998007,0.571064,629258,0.360064
291796.875000,747,0x00001F,1001195,0.572888,1312084,0.750781,997978,0.571048,629417,0.360155
292187.500000,748,0x00001F,1001138,0.572856,1312130,0.750807,997769,0.570928,629305,0.360091
292578.125000,749,0x00001F,1001109,0.572839,1312080,0.750778,997952,0.571033,629335,0.360108
292968.750000,750,0x00001F,1001159,0.572868,1312077,0.750777,997985,0.571052,629445,0.360171
293359.375000,751,0x00001F,1001105,0.572837,1312140,0.750813,997947,0.571030,629371,0.360129
293750.000000,752,0x00001F,1001053,0.572807,1312037,0.750754,997954,0.571034,629509,0.360208
294140.625000,753,0x00001F,1001219,0.572902,1312113,0.750797,997782,0.570935,629211,0.360037
294531.250000,754,0x00001F,1001130,0.572851,1312006,0.750736,997926,0.571018,629515,0.360211
294921.875000,755,0x00001F,1000969,0.572759,1312095,0.750787,998087,0.571110,629405,0.360148
295312.500000,756,0x00001F,1001049,0.572805,1312158,0.750823,998041,0.571084,629425,0.360160
295703.125000,757,0x00001F,1001165,0.572871,1312051,0.750762,997977,0.571047,629452,0.360175
296093.750000,758,0x00001F,1001080,0.572823,1312250,0.750876,997898,0.571002,629412,0.360152
296484.375000,759,0x00001F,1001146,0.572860,1312129,0.750806,997948,0.571030,629250,0.360060
296875.000000,760,0x00001F,1000928,0.572736,1312161,0.750825,997909,0.571008,629439,0.360168
297265.625000,761,0x00001F,1001124,0.572848,1312145,0.750815,997876,0.570989,629284,0.360079
297656.250000,762,0x00001F,1001086,0.572826,1311905,0.750678,997925,0.571017,629400,0.360146
298046.875000,763,0x00001F,1000989,0.572771,1312041,0.750756,997978,0.571048,629488,0.360196
298437.500000,764,0x00001F,1000995,0.572774,1312123,0.750803,997888,0.570996,629233,0.360050
298828.125000,765,0x00001F,1000981,0.572766,1312054,0.750763,997949,0.571031,629386,0.360138
299218.750000,766,0x00001F,1001113,0.572841,1312098,0.750789,998013,0.571068,629517,0.360213
299609.375000,767,0x00001F,1001167,0.572872,1312060,0.750767,997793,0.570942,629312,0.360095
300000.000000,768,0x00001F,1000970,0.572760,1311970,0.750715,997937,0.571024,629431,0.360163
300390.625000,769,0x00001F,1001185,0.572883,1312105,0.750793,997942,0.571027,629556,0.360235
300781.250000,770,0x00001F,1001177,0.572878,1312110,0.750795,997757,0.570921,629357,0.360121
301171.875000,771,0x00001F,1001107,0.572838,1312048,0.750760,997808,0.570950,629442,0.360170
301562.500000,772,0x00001F,1001303,0.572950,1312160,0.750824,997823,0.570959,629481,0.360192
301953.125000,773,0x00001F,1001167,0.572872,1312112,0.750797,997702,0.570890,629397,0.360144
302343.750000,774,0x00001F,1001101,0.572835,1311977,0.750719,998065,0.571097,629494,0.360199
302734.375000,775,0x00001F,1001057,0.572809,1311964,0.750712,998054,0.571091,629391,0.360140
303125.000000,776,0x00001F,1001064,0.572813,1312017,0.750742,998018,0.571070,629482,0.360193
303515.625000,777,0x00001F,1001099,0.572833,1312268,0.750886,997947,0.571030,629376,0.360132
303906.250000,778,0x00001F,1001214,0.572899,1312115,0.750798,997914,0.571011,629439,0.360168
304296.875000,779,0x00001F,1001154,0.572865,1311987,0.750725,998041,0.571084,629446,0.360172
304687.500000,780,0x00001F,1001102,0.572835,1311954,0.750706,997968,0.571042,629394,0.360142
305078.125000,781,0x00001F,1001081,0.572823,1312067,0.750771,997956,0.571035,629326,0.360103
305468.750000,782,0x00001F,1001164,0.572871,1312109,0.750795,997945,0.571029,629458,0.360179
305859.375000,783,0x00001F,1001078,0.572821,1312203,0.750849,997949,0.571031,629406,0.360149
306250.000000,784,0x00001F,1001101,0.572835,1312179,0.750835,997810,0.570951,629381,0.360135
306640.625000,785,0x00001F,1001079,0.572822,1312061,0.750767,997832,0.570964,629473,0.360187
307031.250000,786,0x00001F,1001021,0.572789,1312034,0.750752,998012,0.571067,629348,0.360116
307421.875000,787,0x00001F,1000973,0.572761,1312059,0.750766,998039,0.571083,629433,0.360164
307812.500000,788,0x00001F,1001217,0.572901,1311945,0.750701,998109,0.571123,629412,0.360152
308203.125000,789,0x00001F,1001066,0.572815,1312082,0.750779,997887,0.570996,629272,0.360072
308593.750000,790,0x00001F,1000947,0.572747,1312133,0.750809,998002,0.571061,629264,0.360068
308984.375000,791,0x00001F,1001063,0.572813,1312037,0.750754,997943,0.571028,629438,0.360167
309375.000000,792,0x00001F,1001148,0.572861,1312029,0.750749,997792,0.570941,629296,0.360086
309765.625000,793,0x00001F,1001002,0.572778,1312175,0.750833,998037,0.571081,629440,0.360168
310156.250000,794,0x00001F,1001154,0.572865,1312007,0.750736,998023,0.571073,629510,0.360209
310546.875000,795,0x00001F,1001210,0.572897,1311984,0.750723,998030,0.571077,629326,0.360103
310937.500000,796,0x00001F,1001132,0.572852,1312124,0.750803,997915,0.571012,629411,0.360152
311328.125000,797,0x00001F,1001236,0.572912,1312079,0.750778,998045,0.571086,629452,0.360175
311718.750000,798,0x00001F,1001180,0.572880,1312040,0.750755,997842,0.570970,629454,0.360176
312109.375000,799,0x00001F,1001052,0.572807,1312168,0.750829,998048,0.571088,629437,0.360167
312500.000000,800,0x00001F,1001163,0.572870,1312068,0.750771,997952,0.571033,629262,0.360067
312890.625000,801,0x00001F,1001071,0.572817,1312086,0.750782,997948,0.571030,629404,0.360148
313281.250000,802,0x00001F,1001098,0.572833,1312169,0.750829,997975,0.571046,629335,0.360108
313671.875000,803,0x00001F,1001227,0.572907,1312032,0.750751,998047,0.571087,629519,0.360214
314062.500000,804,0x00001F,1001224,0.572905,1312116,0.750799,998026,0.571075,629488,0.360196
314453.125000,805,0x00001F,1001040,0.572800,1312001,0.750733,998119,0.571128,629385,0.360137
314843.750000,806,0x00001F,1001162,0.572870,1312074,0.750775,997880,0.570992,629474,0.360188
315234.375000,807,0x00001F,1001012,0.572784,1311955,0.750707,998021,0.571072,629515,0.360211
315625.000000,808,0x00001F,1001102,0.572835,1311903,0.750677,997862,0.570981,629378,0.360133
316015.625000,809,0x00001F,1000967,0.572758,1311975,0.750718,997914,0.571011,629320,0.360100
316406.250000,810,0x00001F,1001169,0.572874,1311911,0.750682,997951,0.571032,629552,0.360233
316796.875000,811,0x00001F,1001167,0.572872,1311984,0.750723,997815,0.570954,629442,0.360170
317187.500000,812,0x00001F,1000963,0.572756,1311914,0.750683,998001,0.571061,629385,0.360137
317578.125000,813,0x00001F,1001146,0.572860,1311999,0.750732,997987,0.571053,629321,0.360100
317968.750000,814,0x00001F,1000986,0.572769,1312103,0.750791,998022,0.571073,629278,0.360076
318359.375000,815,0x00001F,1001071,0.572817,1312014,0.750740,997979,0.571048,629353,0.360119
318750.000000,816,0x00001F,1001206,0.572895,1312154,0.750821,997925,0.571017,629500,0.360203
319140.625000,817,0x00001F,1001122,0.572847,1312082,0.750779,997896,0.571001,629311,0.360095
319531.250000,818,0x00001F,1001128,0.572850,1312139,0.750812,997739,0.570911,629342,0.360112
319921.875000,819,0x00001F,1001015,0.572785,1311998,0.750731,997848,0.570973,629535,0.360223
320312.500000,820,0x00001F,1001237,0.572912,1312172,0.750831,997795,0.570943,629410,0.360151
320703.125000,821,0x00001F,1001105,0.572837,1312043,0.750757,997805,0.570949,629427,0.360161
321093.750000,822,0x00001F,1001164,0.572871,1312059,0.750766,997917,0.571013,629378,0.360133
321484.375000,823,0x00001F,1001259,0.572925,1312051,0.750762,997949,0.571031,629478,0.360190
321875.000000,824,0x00001F,1001181,0.572880,1312075,0.750775,998000,0.571060,629550,0.360231
322265.625000,825,0x00001F,1001166,0.572872,1312156,0.750822,998020,0.571072,629409,0.360151
322656.250000,826,0x00001F,1001167,0.572872,1311962,0.750711,998032,0.571079,629425,0.360160
323046.875000,827,0x00001F,1001027,0.572792,1312070,0.750773,997968,0.571042,629408,0.360150
323437.500000,828,0x00001F,1001202,0.572892,1312116,0.750799,997974,0.571045,629495,0.360200
323828.125000,829,0x00001F,1001258,0.572924,1311997,0.750731,997948,0.571030,629314,0.360096
324218.750000,830,0x00001F,1001247,0.572918,1311983,0.750723,997843,0.570970,629404,0.360148
324609.375000,831,0x00001F,1001114,0.572842,1312034,0.750752,997984,0.571051,629329,0.360105
325000.000000,832,0x00001F,1000973,0.572761,1311960,0.750710,998077,0.571104,629443,0.360170
325390.625000,833,0x00001F,1001154,0.572865,1312073,0.750774,997832,0.570964,629316,0.360098
325781.250000,834,0x00001F,1001166,0.572872,1311850,0.750647,997989,0.571054,629355,0.360120
326171.875000,835,0x00001F,1001130,0.572851,1312080,0.750778,997857,0.570978,629403,0.360147
326562.500000,836,0x00001F,1001126,0.572849,1312059,0.750766,997921,0.571015,629399,0.360145
326953.125000,837,0x00001F,1001040,0.572800,1312003,0.750734,998117,0.571127,629434,0.360165
327343.750000,838,0x00001F,1001021,0.572789,1312051,0.750762,997826,0.570961,629353,0.360119
327734.375000,839,0x00001F,1000931,0.572737,1312152,0.750819,997859,0.570980,629409,0.360151
328125.000000,840,0x00001F,1001122,0.572847,1312121,0.750802,998063,0.571096,629263,0.360067
328515.625000,841,0x00001F,1001189,0.572885,1311977,0.750719,997991,0.571055,629470,0.360186
328906.250000,842,0x00001F,1000956,0.572752,1312056,0.750764,997910,0.571009,629210,0.360037
329296.875000,843,0x00001F,1000978,0.572764,1312153,0.750820,998040,0.571083,629377,0.360132
329687.500000,844,0x00001F,1001016,0.572786,1312055,0.750764,997915,0.571012,629255,0.360063
330078.125000,845,0x00001F,1001093,0.572830,1312127,0.750805,997975,0.571046,629132,0.359992
330468.750000,846,0x00001F,1001110,0.572840,1312023,0.750746,997970,0.571043,629285,0.360080
330859.375000,847,0x00001F,1001195,0.572888,1312071,0.750773,997866,0.570984,629435,0.360166
331250.000000,848,0x00001F,1000994,0.572773,1312085,0.750781,997904,0.571005,629428,0.360162
331640.625000,849,0x00001F,1001165,0.572871,1312225,0.750861,998181,0.571164,629339,0.360111
332031.250000,850,0x00001F,1001260,0.572926,1311997,0.750731,997791,0.570941,629395,0.360143
332421.875000,851,0x00001F,1001155,0.572865,1312238,0.750869,997980,0.571049,629408,0.360150
332812.500000,852,0x00001F,1000984,0.572768,1312079,0.750778,997935,0.571023,629327,0.360104
333203.125000,853,0x00001F,1001117,0.572844,1312039,0.750755,998159,0.571151,629275,0.360074
333593.750000,854,0x00001F,1001018,0.572787,1311945,0.750701,997946,0.571029,629416,0.360155
333984.375000,855,0x00001F,1000923,0.572733,1311931,0.750693,998028,0.571076,629419,0.360156
334375.000000,856,0x00001F,1001141,0.572857,1311982,0.750722,998005,0.571063,629312,0.360095
334765.625000,857,0x00001F,1001033,0.572796,1311929,0.750692,998036,0.571081,629294,0.360085
335156.250000,858,0x00001F,1001179,0.572879,1312104,0.750792,998052,0.571090,629429,0.360162
335546.875000,859,0x00001F,1001015,0.572785,1312049,0.750760,998023,0.571073,629366,0.360126
335937.500000,860,0x00001F,1001029,0.572793,1312015,0.750741,997907,0.571007,629391,0.360140
336328.125000,861,0x00001F,1000868,0.572701,1312046,0.750759,998054,0.571091,629268,0.360070
336718.750000,862,0x00001F,1001079,0.572822,1312057,0.750765,998001,0.571061,629341,0.360112
337109.375000,863,0x00001F,1001038,0.572799,1312017,0.750742,998050,0.571089,629214,0.360039
337500.000000,864,0x00001F,1000909,0.572725,1312068,0.750771,997962,0.571038,629234,0.360051
337890.625000,865,0x00001F,1000955,0.572751,1311846,0.750644,997898,0.571002,629337,0.360110
338281.250000,866,0x00001F,1001198,0.572890,1312101,0.750790,997987,0.571053,629504,0.360205
338671.875000,867,0x00001F,1001167,0.572872,1312151,0.750819,997887,0.570996,629337,0.360110
339062.500000,868,0x00001F,1001048,0.572804,1312048,0.750760,998043,0.571085,629348,0.360116
339453.125000,869,0x00001F,1001146,0.572860,1311968,0.750714,998121,0.571129,629281,0.360078
339843.750000,870,0x00001F,1001067,0.572815,1312002,0.750734,997859,0.570980,629113,0.359981
340234.375000,871,0x00001F,1001010,0.572783,1312146,0.750816,997906,0.571006,629301,0.360089
340625.000000,872,0x00001F,1000978,0.572764,1311841,0.750641,997905,0.571006,629379,0.360134
341015.625000,873,0x00001F,1001160,0.572868,1311991,0.750727,997675,0.570874,629363,0.360124
341406.250000,874,0x00001F,1001072,0.572818,1312009,0.750738,997920,0.571014,629400,0.360146
341796.875000,875,0x00001F,1001124,0.572848,1311976,0.750719,998035,0.571080,629400,0.360146
342187.500000,876,0x00001F,1001171,0.572875,1312111,0.750796,997859,0.570980,629408,0.360150
342578.125000,877,0x00001F,1000943,0.572744,1311962,0.750711,997939,0.571025,629328,0.360104
342968.750000,878,0x00001F,1001167,0.572872,1311987,0.750725,997970,0.571043,629409,0.360151
343359.375000,879,0x00001F,1001248,0.572919,1311977,0.750719,997938,0.571025,629370,0.360128
343750.000000,880,0x00001F,1001098,0.572833,1311841,0.750641,998028,0.571076,629375,0.360131
344140.625000,881,0x00001F,1001168,0.572873,1312049,0.750760,998120,0.571129,629357,0.360121
344531.250000,882,0x00001F,1000941,0.572743,1312146,0.750816,998028,0.571076,629347,0.360115
344921.875000,883,0x00001F,1001136,0.572855,1312098,0.750789,997900,0.571003,629331,0.360106
345312.500000,884,0x00001F,1001154,0.572865,1312005,0.750735,997958,0.571036,629382,0.360135
345703.125000,885,0x00001F,1001077,0.572821,1311993,0.750728,997835,0.570966,629420,0.360157
346093.750000,886,0x00001F,1001143,0.572859,1311893,0.750671,997888,0.570996,629414,0.360154
346484.375000,887,0x00001F,1001087,0.572827,1312135,0.750810,997854,0.570977,629231,0.360049
346875.000000,888,0x00001F,1001111,0.572840,1311989,0.750726,997935,0.571023,629283,0.360079
347265.625000,889,0x00001F,1001042,0.572801,1311892,0.750671,997900,0.571003,629419,0.360156
347656.250000,890,0x00001F,1001128,0.572850,1312108,0.750794,997923,0.571016,629295,0.360085
348046.875000,891,0x00001F,1001111,0.572840,1312081,0.750779,997824,0.570960,629423,0.360159
348437.500000,892,0x00001F,1001215,0.572900,1312040,0.750755,997692,0.570884,629250,0.360060
348828.125000,893,0x00001F,1001022,0.572789,1312056,0.750764,997819,0.570957,629345,0.360114
349218.750000,894,0x00001F,1001111,0.572840,1311993,0.750728,997810,0.570951,629342,0.360112
349609.375000,895,0x00001F,1001255,0.572923,1312115,0.750798,997736,0.570909,629411,0.360152
350000.000000,896,0x00001F,1000985,0.572768,1312128,0.750806,997942,0.571027,629343,0.360113
350390.625000,897,0x00001F,1001238,0.572913,1311937,0.750696,998057,0.571093,629339,0.360111
350781.250000,898,0x00001F,1001105,0.572837,1311899,0.750675,998041,0.571084,629376,0.360132
351171.875000,899,0x00001F,1001183,0.572882,1312086,0.750782,998145,0.571143,629312,0.360095
351562.500000,900,0x00001F,1000901,0.572720,1311919,0.750686,998030,0.571077,629561,0.360238
351953.125000,901,0x00001F,1001154,0.572865,1312134,0.750809,998015,0.571069,629377,0.360132
352343.750000,902,0x00001F,1000990,0.572771,1312033,0.750751,997995,0.571057,629261,0.360066
352734.375000,903,0x00001F,1001100,0.572834,1312025,0.750747,997953,0.571033,629410,0.360151
353125.000000,904,0x00001F,1001224,0.572905,1312006,0.750736,997861,0.570981,629498,0.360202
353515.625000,905,0x00001F,1000990,0.572771,1311948,0.750703,998089,0.571111,629343,0.360113
353906.250000,906,0x00001F,1001120,0.572845,1311986,0.750724,997967,0.571041,629315,0.360097
354296.875000,907,0x00001F,1001007,0.572781,1312020,0.750744,997989,0.571054,629544,0.360228
354687.500000,908,0x00001F,1001040,0.572800,1312128,0.750806,997923,0.571016,629349,0.360116
355078.125000,909,0x00001F,1001062,0.572812,1311956,0.750707,997956,0.571035,629285,0.360080
355468.750000,910,0x00001F,1000977,0.572764,1311965,0.750712,997960,0.571037,629383,0.360136
355859.375000,911,0x00001F,1001112,0.572841,1311997,0.750731,997981,0.571049,629286,0.360080
356250.000000,912,0x00001F,1001149,0.572862,1311969,0.750715,997954,0.571034,629304,0.360091
356640.625000,913,0x00001F,1001153,0.572864,1312083,0.750780,997967,0.571041,629413,0.360153
357031.250000,914,0x00001F,1001133,0.572853,1312103,0.750791,997860,0.570980,629232,0.360049
357421.875000,915,0x00001F,1001036,0.572797,1312157,0.750822,997877,0.570990,629371,0.360129
357812.500000,916,0x00001F,1001255,0.572923,1312182,0.750837,997945,0.571029,629398,0.360144
358203.125000,917,0x00001F,1001080,0.572823,1312085,0.750781,998170,0.571157,629288,0.360081
358593.750000,918,0x00001F,1001168,0.572873,1312208,0.750851,997961,0.571038,629465,0.360183
358984.375000,919,0x00001F,1001177,0.572878,1312137,0.750811,997936,0.571024,629243,0.360056
359375.000000,920,0x00001F,1000977,0.572764,1311991,0.750727,997925,0.571017,629415,0.360154
359765.625000,921,0x00001F,1001074,0.572819,1312084,0.750781,997960,0.571037,629258,0.360064
360156.250000,922,0x00001F,1001156,0.572866,1312172,0.750831,997694,0.570885,629268,0.360070
360546.875000,923,0x00001F,1001041,0.572800,1312004,0.750735,997883,0.570993,629321,0.360100
360937.500000,924,0x00001F,1001165,0.572871,1312105,0.750793,997866,0.570984,629326,0.360103
361328.125000,925,0x00001F,1000954,0.572751,1311930,0.750692,997897,0.571001,629268,0.360070
361718.750000,926,0x00001F,1000966,0.572757,1312021,0.750744,998087,0.571110,629375,0.360131
362109.375000,927,0x00001F,1001043,0.572801,1311987,0.750725,998074,0.571103,629277,0.360075
362500.000000,928,0x00001F,1000917,0.572729,1311967,0.750714,997906,0.571006,629342,0.360112
362890.625000,929,0x00001F,1001064,0.572813,1312019,0.750743,997866,0.570984,629380,0.360134
363281.250000,930,0x00001F,1001064,0.572813,1312111,0.750796,997844,0.570971,629239,0.360053
363671.875000,931,0x00001F,1000964,0.572756,1311937,0.750696,997990,0.571054,629321,0.360100
364062.500000,932,0x00001F,1001089,0.572828,1311979,0.750720,997967,0.571041,629233,0.360050
364453.125000,933,0x00001F,1000971,0.572760,1311866,0.750656,997809,0.570951,629271,0.360072
364843.750000,934,0x00001F,1001134,0.572854,1311955,0.750707,997793,0.570942,629193,0.360027
365234.375000,935,0x00001F,1001274,0.572934,1311980,0.750721,997953,0.571033,629207,0.360035
365625.000000,936,0x00001F,1001097,0.572832,1311975,0.750718,997740,0.570911,629301,0.360089
366015.625000,937,0x00001F,1001126,0.572849,1311928,0.750691,997949,0.571031,629375,0.360131
366406.250000,938,0x00001F,1001308,0.572953,1312117,0.750799,997881,0.570992,629309,0.360094
366796.875000,939,0x00001F,1001220,0.572903,1312105,0.750793,997888,0.570996,629316,0.360098
367187.500000,940,0x00001F,1001202,0.572892,1312104,0.750792,997860,0.570980,629181,0.360020
367578.125000,941,0x00001F,1001176,0.572878,1312167,0.750828,998124,0.571131,629418,0.360156
367968.750000,942,0x00001F,1000936,0.572740,1311897,0.750674,997941,0.571026,629373,0.360130
368359.375000,943,0x00001F,1001023,0.572790,1312092,0.750785,997902,0.571004,629420,0.360157
368750.000000,944,0x00001F,1001159,0.572868,1312038,0.750754,997917,0.571013,629296,0.360086
369140.625000,945,0x00001F,1001092,0.572829,1312211,0.750853,997953,0.571033,629444,0.360171
369531.250000,946,0x00001F,1001083,0.572824,1311988,0.750726,997912,0.571010,629342,0.360112
369921.875000,947,0x00001F,1001035,0.572797,1312075,0.750775,998054,0.571091,629328,0.360104
370312.500000,948,0x00001F,1001134,0.572854,1312109,0.750795,997796,0.570943,629380,0.360134
370703.125000,949,0x00001F,1001102,0.572835,1312111,0.750796,997971,0.571044,629412,0.360152
371093.750000,950,0x00001F,1001110,0.572840,1311983,0.750723,997941,0.571026,629452,0.360175
371484.375000,951,0x00001F,1001031,0.572795,1312095,0.750787,997895,0.571000,629318,0.360099
371875.000000,952,0x00001F,1001231,0.572909,1312009,0.750738,998124,0.571131,629197,0.360029
372265.625000,953,0x00001F,1001162,0.572870,1311957,0.750708,997795,0.570943,629389,0.360139
372656.250000,954,0x00001F,1001127,0.572850,1312003,0.750734,997853,0.570976,629221,0.360043
373046.875000,955,0x00001F,1001125,0.572848,1312011,0.750739,997958,0.571036,629310,0.360094
373437.500000,956,0x00001F,1001080,0.572823,1311960,0.750710,997826,0.570961,629246,0.360057
373828.125000,957,0x00001F,1001082,0.572824,1312024,0.750746,997992,0.571056,629301,0.360089
374218.750000,958,0x00001F,1001089,0.572828,1312125,0.750804,997899,0.571002,629351,0.360118
374609.375000,959,0x00001F,1001052,0.572807,1312090,0.750784,998000,0.571060,629301,0.360089
375000.000000,960,0x00001F,1001089,0.572828,1312051,0.750762,997817,0.570956,629331,0.360106
375390.625000,961,0x00001F,1001128,0.572850,1312038,0.750754,997858,0.570979,629244,0.360056
375781.250000,962,0x00001F,1000970,0.572760,1311961,0.750710,997856,0.570978,629353,0.360119
376171.875000,963,0x00001F,1001011,0.572783,1312082,0.750779,997977,0.571047,629283,0.360079
376562.500000,964,0x00001F,1001123,0.572847,1312170,0.750830,997846,0.570972,629272,0.360072
376953.125000,965,0x00001F,1001179,0.572879,1312001,0.750733,997896,0.571001,629340,0.360111
377343.750000,966,0x00001F,1001231,0.572909,1311973,0.750717,998074,0.571103,629262,0.360067
377734.375000,967,0x00001F,1001115,0.572843,1312044,0.750758,998025,0.571074,629167,0.360012
378125.000000,968,0x00001F,1001126,0.572849,1311962,0.750711,997804,0.570948,629475,0.360188
378515.625000,969,0x00001F,1001057,0.572809,1312048,0.750760,998003,0.571062,629267,0.360069
378906.250000,970,0x00001F,1001145,0.572860,1311931,0.750693,997924,0.571017,629295,0.360085
379296.875000,971,0x00001F,1001169,0.572874,1312083,0.750780,997981,0.571049,629297,0.360087
379687.500000,972,0x00001F,1001154,0.572865,1311905,0.750678,998084,0.571108,629412,0.360152
380078.125000,973,0x00001F,1001035,0.572797,1311948,0.750703,997976,0.571046,629342,0.360112
380468.750000,974,0x00001F,1001130,0.572851,1312042,0.750757,998049,0.571088,629175,0.360017
380859.375000,975,0x00001F,1000966,0.572757,1311886,0.750667,997880,0.570992,629327,0.360104
381250.000000,976,0x00001F,1001022,0.572789,1311868,0.750657,998102,0.571119,629369,0.360128
381640.625000,977,0x00001F,1001277,0.572935,1312125,0.750804,997975,0.571046,629464,0.360182
382031.250000,978,0x00001F,1001190,0.572886,1311700,0.750561,998060,0.571095,629443,0.360170
382421.875000,979,0x00001F,1001155,0.572865,1312112,0.750797,997954,0.571034,629429,0.360162
382812.500000,980,0x00001F,1001172,0.572875,1312112,0.750797,997948,0.571030,629397,0.360144
383203.125000,981,0x00001F,1001071,0.572817,1312049,0.750760,997990,0.571054,629378,0.360133
383593.750000,982,0x00001F,1001010,0.572783,1312005,0.750735,997797,0.570944,629239,0.360053
383984.375000,983,0x00001F,1001086,0.572826,1312084,0.750781,997923,0.571016,629311,0.360095
384375.000000,984,0x00001F,1001158,0.572867,1311955,0.750707,997896,0.571001,629227,0.360047
384765.625000,985,0x00001F,1001052,0.572807,1311848,0.750645,997951,0.571032,629336,0.360109
385156.250000,986,0x00001F,1001138,0.572856,1312088,0.750783,997933,0.571022,629257,0.360064
385546.875000,987,0x00001F,1001142,0.572858,1312073,0.750774,997977,0.571047,629354,0.360119
385937.500000,988,0x00001F,1001162,0.572870,1311998,0.750731,998003,0.571062,629392,0.360141
386328.125000,989,0x00001F,1001048,0.572804,1312019,0.750743,997936,0.571024,629395,0.360143
386718.750000,990,0x00001F,1001139,0.572856,1312245,0.750873,997874,0.570988,629172,0.360015
387109.375000,991,0x00001F,1001115,0.572843,1312105,0.750793,997853,0.570976,629486,0.360195
387500.000000,992,0x00001F,1001107,0.572838,1312002,0.750734,997963,0.571039,629344,0.360114
387890.625000,993,0x00001F,1001127,0.572850,1312052,0.750762,997997,0.571059,629527,0.360218
388281.250000,994,0x00001F,1001040,0.572800,1312016,0.750742,997935,0.571023,629262,0.360067
388671.875000,995,0x00001F,1001080,0.572823,1312007,0.750736,997921,0.571015,629189,0.360025
389062.500000,996,0x00001F,1001051,0.572806,1312082,0.750779,997989,0.571054,629344,0.360114
389453.125000,997,0x00001F,1001155,0.572865,1312112,0.750797,997845,0.570971,629353,0.360119
389843.750000,998,0x00001F,1001028,0.572793,1312026,0.750747,998005,0.571063,629486,0.360195
390234.375000,999,0x00001F,1001130,0.572851,1312028,0.750748,997962,0.571038,629354,0.360119
390625.000000,1000,0x00001F,1001107,0.572838,1312065,0.750770,997794,0.570942,629374,0.360131
391015.625000,1001,0x00001F,1001102,0.572835,1312220,0.750858,997845,0.570971,629305,0.360091
391406.250000,1002,0x00001F,1001075,0.572820,1312132,0.750808,997859,0.570980,629352,0.360118
391796.875000,1003,0x00001F,1001253,0.572922,1311924,0.750689,997775,0.570931,629424,0.360159
392187.500000,1004,0x00001F,1000994,0.572773,1312042,0.750757,997860,0.570980,629445,0.360171
392578.125000,1005,0x00001F,1001007,0.572781,1311996,0.750730,998000,0.571060,629395,0.360143
392968.750000,1006,0x00001F,1000905,0.572722,1312055,0.750764,997924,0.571017,629369,0.360128
393359.375000,1007,0x00001F,1001111,0.572840,1312050,0.750761,997807,0.570950,629295,0.360085
393750.000000,1008,0x00001F,1001211,0.572898,1312150,0.750818,997892,0.570998,629308,0.360093
394140.625000,1009,0x00001F,1001188,0.572884,1312065,0.750770,997846,0.570972,629343,0.360113
394531.250000,1010,0x00001F,1001164,0.572871,1312062,0.750768,997917,0.571013,629385,0.360137
394921.875000,1011,0x00001F,1001085,0.572825,1312009,0.750738,997944,0.571028,629368,0.360127
395312.500000,1012,0x00001F,1001126,0.572849,1312156,0.750822,998014,0.571068,629346,0.360115
395703.125000,1013,0x00001F,1001108,0.572839,1311939,0.750698,998010,0.571066,629455,0.360177
396093.750000,1014,0x00001F,1001048,0.572804,1312077,0.750777,997880,0.570992,629224,0.360045
396484.375000,1015,0x00001F,1001287,0.572941,1312003,0.750734,997864,0.570982,629198,0.360030
396875.000000,1016,0x00001F,1001108,0.572839,1311974,0.750718,997974,0.571045,629327,0.360104
397265.625000,1017,0x00001F,1001065,0.572814,1311995,0.750730,997923,0.571016,629388,0.360139
397656.250000,1018,0x00001F,1001099,0.572833,1311976,0.750719,998127,0.571133,629281,0.360078
398046.875000,1019,0x00001F,1001100,0.572834,1311909,0.750680,997911,0.571009,629333,0.360107
398437.500000,1020,0x00001F,1001182,0.572881,1312087,0.750782,997971,0.571044,629386,0.360138
398828.125000,1021,0x00001F,1001250,0.572920,1312130,0.750807,997991,0.571055,629361,0.360123
399218.750000,1022,0x00001F,1001108,0.572839,1311943,0.750700,998068,0.571099,629352,0.360118
399609.375000,1023,0x00001F,1001022,0.572789,1311924,0.750689,998082,0.571107,629188,0.360024
400000.000000,1024,0x00001F,1001019,0.572788,1311926,0.750690,998052,0.571090,629320,0.360100
400390.625000,1025,0x00001F,1001152,0.572864,1311835,0.750638,997943,0.571028,629286,0.360080
400781.250000,1026,0x00001F,1000953,0.572750,1311896,0.750673,997882,0.570993,629284,0.360079
401171.875000,1027,0x00001F,1001093,0.572830,1311989,0.750726,997912,0.571010,629394,0.360142
401562.500000,1028,0x00001F,1001285,0.572940,1312165,0.750827,998011,0.571066,629516,0.360212
401953.125000,1029,0x00001F,1001148,0.572861,1312073,0.750774,997935,0.571023,629790,0.360369
402343.750000,1030,0x00001F,1001304,0.572951,1312276,0.750890,998061,0.571095,629703,0.360319
402734.375000,1031,0x00001F,1001097,0.572832,1312240,0.750870,998110,0.571123,629598,0.360259
403125.000000,1032,0x00001F,1001284,0.572939,1312144,0.750815,998064,0.571097,629514,0.360211
403515.625000,1033,0x00001F,1001136,0.572855,1312136,0.750810,997902,0.571004,629368,0.360127
403906.250000,1034,0x00001F,1001153,0.572864,1312060,0.750767,997859,0.570980,629009,0.359922
404296.875000,1035,0x00001F,1001094,0.572831,1311871,0.750659,997859,0.570980,628904,0.359862
404687.500000,1036,0x00001F,1001020,0.572788,1311777,0.750605,997649,0.570859,628867,0.359841
405078.125000,1037,0x00001F,1001051,0.572806,1311864,0.750655,997813,0.570953,629142,0.359998
405468.750000,1038,0x00001F,1001280,0.572937,1312028,0.750748,997989,0.571054,629567,0.360241
405859.375000,1039,0x00001F,1001242,0.572915,1312312,0.750911,998078,0.571105,629705,0.360320
406250.000000,1040,0x00001F,1001202,0.572892,1312223,0.750860,998084,0.571108,629815,0.360383
406640.625000,1041,0x00001F,1001302,0.572950,1312152,0.750819,998043,0.571085,629755,0.360349
407031.250000,1042,0x00001F,1001240,0.572914,1312072,0.750774,998071,0.571101,629366,0.360126
407421.875000,1043,0x00001F,1001074,0.572819,1311823,0.750631,997953,0.571033,629151,0.360003
407812.500000,1044,0x00001F,1000989,0.572771,1311770,0.750601,997913,0.571010,629062,0.359952
408203.125000,1045,0x00001F,1000861,0.572697,1311889,0.750669,997971,0.571044,629073,0.359958
408593.750000,1046,0x00001F,1001024,0.572791,1312003,0.750734,997949,0.571031,629191,0.360026
408984.375000,1047,0x00001F,1001349,0.572977,1312218,0.750857,997984,0.571051,629583,0.360250
409375.000000,1048,0x00001F,1001124,0.572848,1312143,0.750814,998004,0.571063,629615,0.360269
409765.625000,1049,0x00001F,1001252,0.572921,1312067,0.750771,998115,0.571126,629524,0.360217
410156.250000,1050,0x00001F,1001181,0.572880,1312085,0.750781,997938,0.571025,629331,0.360106
410546.875000,1051,0x00001F,1001096,0.572832,1312005,0.750735,997861,0.570981,629389,0.360139
410937.500000,1052,0x00001F,1001099,0.572833,1312024,0.750746,997867,0.570984,629227,0.360047
411328.125000,1053,0x00001F,1001223,0.572904,1311979,0.750720,997808,0.570950,629244,0.360056
411718.750000,1054,0x00001F,1001054,0.572808,1311990,0.750727,997924,0.571017,629427,0.360161
412109.375000,1055,0x00001F,1001231,0.572909,1311949,0.750703,997958,0.571036,629354,0.360119
412500.000000,1056,0x00001F,1001117,0.572844,1312037,0.750754,998024,0.571074,629480,0.360191
412890.625000,1057,0x00001F,1001149,0.572862,1311990,0.750727,997791,0.570941,629676,0.360304
413281.250000,1058,0x00001F,1001174,0.572876,1312327,0.750920,997872,0.570987,629269,0.360071
413671.875000,1059,0x00001F,1001320,0.572960,1312163,0.750826,997885,0.570994,629425,0.360160
414062.500000,1060,0x00001F,1001212,0.572898,1312081,0.750779,997829,0.570962,629480,0.360191
414453.125000,1061,0x00001F,1001154,0.572865,1312083,0.750780,997936,0.571024,629355,0.360120
414843.750000,1062,0x00001F,1001043,0.572801,1311932,0.750694,997895,0.571000,629473,0.360187
415234.375000,1063,0x00001F,1001145,0.572860,1311993,0.750728,997867,0.570984,629389,0.360139
415625.000000,1064,0x00001F,1001054,0.572808,1312040,0.750755,997978,0.571048,629313,0.360096
416015.625000,1065,0x00001F,1001141,0.572857,1311940,0.750698,998024,0.571074,629414,0.360154
416406.250000,1066,0x00001F,1001193,0.572887,1312002,0.750734,997908,0.571008,629408,0.360150
416796.875000,1067,0x00001F,1001209,0.572896,1312082,0.750779,997906,0.571006,629555,0.360234
417187.500000,1068,0x00001F,1001144,0.572859,1312019,0.750743,998078,0.571105,629440,0.360168
417578.125000,1069,0x00001F,1001271,0.572932,1312095,0.750787,997945,0.571029,629514,0.360211
417968.750000,1070,0x00001F,1001209,0.572896,1312310,0.750910,997930,0.571020,629624,0.360274
418359.375000,1071,0x00001F,1000956,0.572752,1311981,0.750722,997888,0.570996,629409,0.360151
418750.000000,1072,0x00001F,1001230,0.572908,1312085,0.750781,997948,0.571030,629375,0.360131
419140.625000,1073,0x00001F,1000947,0.572747,1312114,0.750798,997878,0.570990,629305,0.360091
419531.250000,1074,0x00001F,1001119,0.572845,1311905,0.750678,997991,0.571055,629192,0.360027
419921.875000,1075,0x00001F,1001102,0.572835,1311910,0.750681,997872,0.570987,629370,0.360128
420312.500000,1076,0x00001F,1000998,0.572776,1312115,0.750798,998002,0.571061,629503,0.360205
420703.125000,1077,0x00001F,1001177,0.572878,1312065,0.750770,998093,0.571113,629338,0.360110
421093.750000,1078,0x00001F,1001234,0.572911,1312234,0.750866,997927,0.571018,629481,0.360192
421484.375000,1079,0x00001F,1001183,0.572882,1312235,0.750867,997917,0.571013,629389,0.360139
421875.000000,1080,0x00001F,1001011,0.572783,1312093,0.750786,997923,0.571016,629221,0.360043
422265.625000,1081,0x00001F,1001025,0.572791,1311919,0.750686,997981,0.571049,629279,0.360076
422656.250000,1082,0x00001F,1000967,0.572758,1311959,0.750709,997878,0.570990,629135,0.359994
423046.875000,1083,0x00001F,1001154,0.572865,1312130,0.750807,997952,0.571033,629318,0.360099
423437.500000,1084,0x00001F,1001265,0.572928,1312032,0.750751,997963,0.571039,629314,0.360096
423828.125000,1085,0x00001F,1001134,0.572854,1312052,0.750762,997871,0.570986,629624,0.360274
424218.750000,1086,0x00001F,1001144,0.572859,1312147,0.750817,998021,0.571072,629478,0.360190
424609.375000,1087,0x00001F,1001177,0.572878,1312074,0.750775,998142,0.571141,629415,0.360154
425000.000000,1088,0x00001F,1000895,0.572717,1312070,0.750773,998023,0.571073,629344,0.360114
425390.625000,1089,0x00001F,1001129,0.572851,1312112,0.750797,997973,0.571045,629409,0.360151
425781.250000,1090,0x00001F,1001206,0.572895,1312089,0.750783,997972,0.571044,629170,0.360014
426171.875000,1091,0x00001F,1001139,0.572856,1312019,0.750743,997866,0.570984,629324,0.360102
426562.500000,1092,0x00001F,1001108,0.572839,1312127,0.750805,997960,0.571037,629351,0.360118
426953.125000,1093,0x00001F,1001058,0.572810,1312000,0.750732,997909,0.571008,629335,0.360108
427343.750000,1094,0x00001F,1001085,0.572825,1311930,0.750692,998076,0.571104,629518,0.360213
427734.375000,1095,0x00001F,1001141,0.572857,1312299,0.750904,997880,0.570992,629327,0.360104
428125.000000,1096,0x00001F,1001054,0.572808,1312116,0.750799,997969,0.571042,629372,0.360130
428515.625000,1097,0x00001F,1001297,0.572947,1312017,0.750742,997715,0.570897,629287,0.360081
428906.250000,1098,0x00001F,1001135,0.572854,1312057,0.750765,997932,0.571021,629237,0.360052
429296.875000,1099,0x00001F,1001070,0.572817,1311991,0.750727,997781,0.570935,629314,0.360096
429687.500000,1100,0x00001F,1000935,0.572740,1312092,0.750785,997796,0.570943,629319,0.360099
430078.125000,1101,0x00001F,1001113,0.572841,1311979,0.750720,997860,0.570980,629384,0.360136
430468.750000,1102,0x00001F,1001067,0.572815,1312146,0.750816,998015,0.571069,629393,0.360142
430859.375000,1103,0x00001F,1001190,0.572886,1311917,0.750685,997976,0.571046,629327,0.360104
431250.000000,1104,0x00001F,1001265,0.572928,1312092,0.750785,997914,0.571011,629391,0.360140
431640.625000,1105,0x00001F,1001042,0.572801,1312112,0.750797,998045,0.571086,629473,0.360187
432031.250000,1106,0x00001F,1001134,0.572854,1312021,0.750744,997919,0.571014,629391,0.360140
432421.875000,1107,0x00001F,1001173,0.572876,1312129,0.750806,997916,0.571012,629490,0.360197
432812.500000,1108,0x00001F,1001135,0.572854,1312224,0.750861,998008,0.571065,629482,0.360193
433203.125000,1109,0x00001F,1001124,0.572848,1311970,0.750715,997776,0.570932,629427,0.360161
433593.750000,1110,0x00001F,1001212,0.572898,1312103,0.750791,997883,0.570993,629357,0.360121
433984.375000,1111,0x00001F,1001197,0.572890,1312006,0.750736,997970,0.571043,629260,0.360065
434375.000000,1112,0x00001F,1001176,0.572878,1312037,0.750754,997983,0.571050,629333,0.360107
434765.625000,1113,0x00001F,1001164,0.572871,1311970,0.750715,997932,0.571021,629453,0.360176
435156.250000,1114,0x00001F,1001147,0.572861,1312164,0.750826,997888,0.570996,629405,0.360148
435546.875000,1115,0x00001F,1001126,0.572849,1311986,0.750724,998046,0.571087,629326,0.360103
435937.500000,1116,0x00001F,1001247,0.572918,1312067,0.750771,998007,0.571064,629442,0.360170
436328.125000,1117,0x00001F,1001235,0.572911,1312103,0.750791,998048,0.571088,629465,0.360183
436718.750000,1118,0x00001F,1001219,0.572902,1312200,0.750847,997957,0.571036,629452,0.360175
437109.375000,1119,0x00001F,1001165,0.572871,1312009,0.750738,998051,0.571089,629314,0.360096
437500.000000,1120,0x00001F,1001010,0.572783,1311948,0.750703,998163,0.571153,629237,0.360052
437890.625000,1121,0x00001F,1001001,0.572777,1312012,0.750739,997926,0.571018,629210,0.360037
438281.250000,1122,0x00001F,1001144,0.572859,1312021,0.750744,997890,0.570997,629486,0.360195
438671.875000,1123,0x00001F,1001087,0.572827,1311962,0.750711,997905,0.571006,629358,0.360122
439062.500000,1124,0x00001F,1001149,0.572862,1311988,0.750726,998080,0.571106,629323,0.360102
439453.125000,1125,0x00001F,1001120,0.572845,1312094,0.750786,998052,0.571090,629346,0.360115
439843.750000,1126,0x00001F,1001087,0.572827,1312068,0.750771,997810,0.570951,629384,0.360136
440234.375000,1127,0x00001F,1001249,0.572919,1312104,0.750792,998009,0.571065,629308,0.360093
440625.000000,1128,0x00001F,1001211,0.572898,1312150,0.750818,997966,0.571041,629444,0.360171
441015.625000,1129,0x00001F,1001171,0.572875,1312006,0.750736,997979,0.571048,629301,0.360089
441406.250000,1130,0x00001F,1000883,0.572710,1312053,0.750763,997994,0.571057,629300,0.360088
441796.875000,1131,0x00001F,1001214,0.572899,1312091,0.750785,998033,0.571079,629487,0.360195
442187.500000,1132,0x00001F,1001127,0.572850,1311974,0.750718,998001,0.571061,629367,0.360127
442578.125000,1133,0x00001F,1001068,0.572816,1312089,0.750783,997916,0.571012,629277,0.360075
442968.750000,1134,0x00001F,1001168,0.572873,1312196,0.750845,997958,0.571036,629317,0.360098
443359.375000,1135,0x00001F,1001133,0.572853,1311992,0.750728,997840,0.570969,629358,0.360122
443750.000000,1136,0x00001F,1000989,0.572771,1311966,0.750713,998089,0.571111,629449,0.360174
444140.625000,1137,0x00001F,1001198,0.572890,1312051,0.750762,998094,0.571114,629362,0.360124
444531.250000,1138,0x00001F,1001230,0.572908,1311987,0.750725,997913,0.571010,629476,0.360189
444921.875000,1139,0x00001F,1001123,0.572847,1312260,0.750881,997993,0.571056,629461,0.360180
445312.500000,1140,0x00001F,1001138,0.572856,1312053,0.750763,998121,0.571129,629390,0.360140
445703.125000,1141,0x00001F,1001255,0.572923,1312030,0.750750,997976,0.571046,629384,0.360136
446093.750000,1142,0x00001F,1001234,0.572911,1312062,0.750768,998028,0.571076,629407,0.360150
446484.375000,1143,0x00001F,1001144,0.572859,1311943,0.750700,997982,0.571050,629375,0.360131
446875.000000,1144,0x00001F,1000976,0.572763,1311872,0.750659,997931,0.571021,629418,0.360156
447265.625000,1145,0x00001F,1001205,0.572894,1312106,0.750793,997906,0.571006,629397,0.360144
447656.250000,1146,0x00001F,1000999,0.572776,1312104,0.750792,997924,0.571017,629340,0.360111
448046.875000,1147,0x00001F,1001236,0.572912,1312038,0.750754,997827,0.570961,629490,0.360197
448437.500000,1148,0x00001F,1001119,0.572845,1312101,0.750790,997911,0.571009,629396,0.360143
448828.125000,1149,0x00001F,1001116,0.572843,1312115,0.750798,998103,0.571119,629415,0.360154
449218.750000,1150,0x00001F,1001029,0.572793,1312095,0.750787,997925,0.571017,629418,0.360156
449609.375000,1151,0x00001F,1001158,0.572867,1312201,0.750847,998009,0.571065,629271,0.360072
450000.000000,1152,0x00001F,1001084,0.572825,1312155,0.750821,997883,0.570993,629359,0.360122
450390.625000,1153,0x00001F,1001174,0.572876,1312080,0.750778,997887,0.570996,629458,0.360179
450781.250000,1154,0x00001F,1001128,0.572850,1312059,0.750766,997849,0.570974,629405,0.360148
451171.875000,1155,0x00001F,1001055,0.572808,1312018,0.750743,997917,0.571013,629516,0.360212
451562.500000,1156,0x00001F,1001052,0.572807,1312018,0.750743,997967,0.571041,629308,0.360093
451953.125000,1157,0x00001F,1001056,0.572809,1312109,0.750795,997869,0.570985,629354,0.360119
452343.750000,1158,0x00001F,1001177,0.572878,1312123,0.750803,997794,0.570942,629530,0.360220
452734.375000,1159,0x00001F,1001165,0.572871,1312021,0.750744,997880,0.570992,629470,0.360186
453125.000000,1160,0x00001F,1001094,0.572831,1311920,0.750687,997880,0.570992,629506,0.360206
453515.625000,1161,0x00001F,1001136,0.572855,1312077,0.750777,997920,0.571014,629414,0.360154
453906.250000,1162,0x00001F,1001149,0.572862,1312049,0.750760,998041,0.571084,629382,0.360135
454296.875000,1163,0x00001F,1001120,0.572845,1312014,0.750740,997921,0.571015,629379,0.360134
454687.500000,1164,0x00001F,1001065,0.572814,1312145,0.750815,997881,0.570992,629260,0.360065
455078.125000,1165,0x00001F,1001129,0.572851,1311985,0.750724,998014,0.571068,629397,0.360144
455468.750000,1166,0x00001F,1001068,0.572816,1312021,0.750744,997825,0.570960,629438,0.360167
455859.375000,1167,0x00001F,1000973,0.572761,1312127,0.750805,997947,0.571030,629272,0.360072
456250.000000,1168,0x00001F,1001035,0.572797,1311739,0.750583,998089,0.571111,629472,0.360187
456640.625000,1169,0x00001F,1001155,0.572865,1312045,0.750758,997889,0.570997,629335,0.360108
457031.250000,1170,0x00001F,1001030,0.572794,1312043,0.750757,998060,0.571095,629653,0.360290
457421.875000,1171,0x00001F,1001105,0.572837,1311997,0.750731,997840,0.570969,629372,0.360130
457812.500000,1172,0x00001F,1001133,0.572853,1312136,0.750810,997907,0.571007,629452,0.360175
458203.125000,1173,0x00001F,1001148,0.572861,1312196,0.750845,997974,0.571045,629493,0.360199
458593.750000,1174,0x00001F,1001163,0.572870,1312068,0.750771,997883,0.570993,629309,0.360094
458984.375000,1175,0x00001F,1001049,0.572805,1312067,0.750771,997903,0.571005,629286,0.360080
459375.000000,1176,0x00001F,1000990,0.572771,1312066,0.750770,997919,0.571014,629263,0.360067
459765.625000,1177,0x00001F,1001120,0.572845,1312069,0.750772,997857,0.570978,629340,0.360111
460156.250000,1178,0x00001F,1001066,0.572815,1312009,0.750738,997846,0.570972,629326,0.360103
460546.875000,1179,0x00001F,1001189,0.572885,1312146,0.750816,997872,0.570987,629409,0.360151
460937.500000,1180,0x00001F,1001091,0.572829,1312084,0.750781,998154,0.571148,629358,0.360122
461328.125000,1181,0x00001F,1001206,0.572895,1312004,0.750735,997848,0.570973,629382,0.360135
461718.750000,1182,0x00001F,1001179,0.572879,1311989,0.750726,997975,0.571046,629380,0.360134
462109.375000,1183,0x00001F,1001115,0.572843,1312053,0.750763,997934,0.571022,629405,0.360148
462500.000000,1184,0x00001F,1001156,0.572866,1312099,0.750789,997828,0.570962,629269,0.360071
462890.625000,1185,0x00001F,1001060,0.572811,1311934,0.750695,997993,0.571056,629392,0.360141
463281.250000,1186,0x00001F,1001063,0.572813,1312041,0.750756,998136,0.571138,629376,0.360132
463671.875000,1187,0x00001F,1001175,0.572877,1311955,0.750707,997988,0.571053,629375,0.360131
464062.500000,1188,0x00001F,1001008,0.572781,1312006,0.750736,997994,0.571057,629505,0.360206
464453.125000,1189,0x00001F,1001045,0.572803,1312100,0.750790,997934,0.571022,629359,0.360122
464843.750000,1190,0x00001F,1001057,0.572809,1311901,0.750676,997871,0.570986,629355,0.360120
465234.375000,1191,0x00001F,1001111,0.572840,1311973,0.750717,997949,0.571031,629548,0.360230
465625.000000,1192,0x00001F,1000978,0.572764,1311967,0.750714,997974,0.571045,629488,0.360196
466015.625000,1193,0x00001F,1001363,0.572985,1312130,0.750807,998186,0.571167,629530,0.360220
466406.250000,1194,0x00001F,1001012,0.572784,1311965,0.750712,998024,0.571074,629299,0.360088
466796.875000,1195,0x00001F,1001079,0.572822,1312125,0.750804,997957,0.571036,629378,0.360133
467187.500000,1196,0x00001F,1001170,0.572874,1312064,0.750769,997872,0.570987,629319,0.360099
467578.125000,1197,0x00001F,1001121,0.572846,1311963,0.750711,997945,0.571029,629420,0.360157
467968.750000,1198,0x00001F,1001226,0.572906,1312043,0.750757,997915,0.571012,629258,0.360064
468359.375000,1199,0x00001F,1000994,0.572773,1312003,0.750734,997993,0.571056,629319,0.360099
468750.000000,1200,0x00001F,1001211,0.572898,1311933,0.750694,997988,0.571053,629275,0.360074
469140.625000,1201,0x00001F,1001167,0.572872,1312144,0.750815,997875,0.570989,629325,0.360103
469531.250000,1202,0x00001F,1001057,0.572809,1312144,0.750815,998046,0.571087,629412,0.360152
469921.875000,1203,0x00001F,1001203,0.572893,1312063,0.750768,997809,0.570951,629501,0.360203
470312.500000,1204,0x00001F,1001115,0.572843,1312016,0.750742,997905,0.571006,629374,0.360131
470703.125000,1205,0x00001F,1001117,0.572844,1312039,0.750755,997963,0.571039,629335,0.360108
471093.750000,1206,0x00001F,1001036,0.572797,1312061,0.750767,997910,0.571009,629398,0.360144
471484.375000,1207,0x00001F,1001161,0.572869,1312005,0.750735,997916,0.571012,629394,0.360142
471875.000000,1208,0x00001F,1001075,0.572820,1312102,0.750791,997920,0.571014,629385,0.360137
472265.625000,1209,0x00001F,1001116,0.572843,1312075,0.750775,997922,0.571016,629383,0.360136
472656.250000,1210,0x00001F,1001156,0.572866,1312086,0.750782,997886,0.570995,629474,0.360188
473046.875000,1211,0x00001F,1001007,0.572781,1311973,0.750717,997951,0.571032,629414,0.360154
473437.500000,1212,0x00001F,1001162,0.572870,1312070,0.750773,997869,0.570985,629503,0.360205
473828.125000,1213,0x00001F,1001147,0.572861,1312066,0.750770,997922,0.571016,629422,0.360158
474218.750000,1214,0x00001F,1001081,0.572823,1312090,0.750784,997941,0.571026,629339,0.360111
474609.375000,1215,0x00001F,1001151,0.572863,1311990,0.750727,997924,0.571017,629426,0.360160
475000.000000,1216,0x00001F,1001071,0.572817,1312049,0.750760,997902,0.571004,629607,0.360264
475390.625000,1217,0x00001F,1000990,0.572771,1312080,0.750778,997952,0.571033,629415,0.360154
475781.250000,1218,0x00001F,1001112,0.572841,1312030,0.750750,998127,0.571133,629365,0.360126
476171.875000,1219,0x00001F,1001152,0.572864,1312047,0.750759,997915,0.571012,629337,0.360110
476562.500000,1220,0x00001F,1000926,0.572734,1312051,0.750762,998066,0.571098,629292,0.360084
476953.125000,1221,0x00001F,1001071,0.572817,1311876,0.750661,997996,0.571058,629437,0.360167
477343.750000,1222,0x00001F,1001178,0.572879,1312111,0.750796,998079,0.571105,629400,0.360146
477734.375000,1223,0x00001F,1001158,0.572867,1312154,0.750821,997889,0.570997,629431,0.360163
478125.000000,1224,0x00001F,1001122,0.572847,1311997,0.750731,998103,0.571119,629452,0.360175
478515.625000,1225,0x00001F,1001114,0.572842,1312095,0.750787,997848,0.570973,629332,0.360107
478906.250000,1226,0x00001F,1001154,0.572865,1312186,0.750839,997939,0.571025,629378,0.360133
479296.875000,1227,0x00001F,1001093,0.572830,1312154,0.750821,997951,0.571032,629310,0.360094
479687.500000,1228,0x00001F,1001237,0.572912,1311914,0.750683,998043,0.571085,629467,0.360184
480078.125000,1229,0x00001F,1001188,0.572884,1312050,0.750761,997894,0.571000,629486,0.360195
480468.750000,1230,0x00001F,1001234,0.572911,1312053,0.750763,998084,0.571108,629433,0.360164
480859.375000,1231,0x00001F,1001179,0.572879,1311907,0.750679,998080,0.571106,629593,0.360256
481250.000000,1232,0x00001F,1001165,0.572871,1312162,0.750825,997969,0.571042,629343,0.360113
481640.625000,1233,0x00001F,1000964,0.572756,1311926,0.750690,997824,0.570960,629393,0.360142
482031.250000,1234,0x00001F,1001098,0.572833,1312165,0.750827,997986,0.571052,629445,0.360171
482421.875000,1235,0x00001F,1001140,0.572857,1312087,0.750782,997859,0.570980,629627,0.360275
482812.500000,1236,0x00001F,1001381,0.572995,1312054,0.750763,998099,0.571117,629481,0.360192
483203.125000,1237,0x00001F,1001238,0.572913,1312138,0.750811,998057,0.571093,629399,0.360145
483593.750000,1238,0x00001F,1000989,0.572771,1312215,0.750856,997970,0.571043,629284,0.360079
483984.375000,1239,0x00001F,1001159,0.572868,1312221,0.750859,997962,0.571038,629454,0.360176
484375.000000,1240,0x00001F,1001214,0.572899,1312039,0.750755,997907,0.571007,629456,0.360178
484765.625000,1241,0x00001F,1001171,0.572875,1311952,0.750705,998020,0.571072,629351,0.360118
485156.250000,1242,0x00001F,1001110,0.572840,1311893,0.750671,997998,0.571059,629435,0.360166
485546.875000,1243,0x00001F,1001052,0.572807,1312082,0.750779,997967,0.571041,629268,0.360070
485937.500000,1244,0x00001F,1001155,0.572865,1312042,0.750757,997891,0.570998,629482,0.360193
486328.125000,1245,0x00001F,1001212,0.572898,1312010,0.750738,998042,0.571084,629287,0.360081
486718.750000,1246,0x00001F,1001116,0.572843,1312002,0.750734,997963,0.571039,629382,0.360135
487109.375000,1247,0x00001F,1001099,0.572833,1311898,0.750674,997748,0.570916,629320,0.360100
487500.000000,1248,0x00001F,1000991,0.572772,1312163,0.750826,997932,0.571021,629358,0.360122
487890.625000,1249,0x00001F,1001126,0.572849,1312130,0.750807,997987,0.571053,629463,0.360182
488281.250000,1250,0x00001F,1001014,0.572785,1311930,0.750692,998024,0.571074,629409,0.360151
488671.875000,1251,0x00001F,1000958,0.572753,1312194,0.750843,997823,0.570959,629384,0.360136
489062.500000,1252,0x00001F,1001028,0.572793,1312208,0.750851,997969,0.571042,629291,0.360083
489453.125000,1253,0x00001F,1001246,0.572918,1312175,0.750833,998016,0.571069,629468,0.360184
489843.750000,1254,0x00001F,1001217,0.572901,1312022,0.750745,997828,0.570962,629377,0.360132
490234.375000,1255,0x00001F,1001174,0.572876,1312177,0.750834,997625,0.570846,629309,0.360094
490625.000000,1256,0x00001F,1001009,0.572782,1311957,0.750708,998003,0.571062,629450,0.360174
491015.625000,1257,0x00001F,1001052,0.572807,1312072,0.750774,997876,0.570989,629414,0.360154
491406.250000,1258,0x00001F,1000972,0.572761,1311994,0.750729,997894,0.571000,629385,0.360137
491796.875000,1259,0x00001F,1001128,0.572850,1311972,0.750716,997978,0.571048,629349,0.360116
492187.500000,1260,0x00001F,1000995,0.572774,1311974,0.750718,997936,0.571024,629486,0.360195
492578.125000,1261,0x00001F,1000985,0.572768,1311947,0.750702,997950,0.571032,629401,0.360146
492968.750000,1262,0x00001F,1001073,0.572819,1311949,0.750703,997987,0.571053,629417,0.360155
493359.375000,1263,0x00001F,1001205,0.572894,1311919,0.750686,997879,0.570991,629266,0.360069
